Time (ms),EMG Value
1427.575,53
1428.671,54
1432.205,53
1433.208,52
1433.208,51
1434.213,50
1436.3239999999998,52
1436.3239999999998,52
1436.3239999999998,52
1437.682,50
1440.298,50
1440.298,49
1441.251,49
1441.251,49
1442.245,51
1443.9789999999998,51
1445.0929999999998,51
1445.0929999999998,50
1445.0929999999998,50
1448.555,50
1449.5659999999998,51
1450.568,52
1450.568,52
1452.563,52
1452.563,51
1453.564,51
1453.564,51
1456.7069999999999,51
1456.7069999999999,51
1456.7069999999999,51
1456.7069999999999,50
1458.1,50
1461.1190000000001,50
1461.318,49
1461.615,49
1461.908,48
1465.219,48
1466.204,50
1466.204,48
1466.204,50
1469.3719999999998,50
1469.3719999999998,50
1469.3719999999998,52
1470.368,52
1473.394,52
1473.394,51
1474.375,51
1474.375,51
1475.376,51
1477.376,51
1477.376,51
1478.41,51
1478.8239999999998,51
1481.695,50
1481.695,50
1482.7140000000002,49
1482.7140000000002,49
1485.711,48
1485.711,47
1485.711,47
1486.753,50
1486.753,50
1489.7959999999998,51
1489.7959999999998,50
1490.799,50
1490.799,51
1493.8700000000001,52
1493.8700000000001,52
1494.7930000000001,49
1494.7930000000001,50
1497.335,49
1498.3470000000002,50
1498.3470000000002,50
1499.344,48
1501.3829999999998,50
1502.3999999999999,50
1503.4209999999998,48
1503.4209999999998,50
1503.4209999999998,50
1506.214,47
1506.214,47
1507.31,47
1507.31,47
1510.443,50
1510.443,50
1511.5140000000001,50
1512.673,50
1514.48,52
1515.2369999999999,49
1516.254,48
1517.284,50
1518.351,50
1518.788,50
1518.788,49
1519.8149999999998,50
1520.817,50
1522.263,47
1523.2930000000001,50
1524.276,47
1524.276,49
1526.4850000000001,49
1527.277,45
1528.278,48
1528.278,49
1530.505,50
1531.277,50
1532.281,52
1532.281,52
1533.7320000000002,52
1534.7450000000001,50
1534.7450000000001,49
1535.8039999999999,51
1536.356,51
1538.942,51
1539.559,51
1540.635,50
1540.635,50
1542.794,50
1542.794,49
1543.923,48
1544.443,47
1547.001,47
1547.747,47
1547.747,49
1548.7450000000001,50
1550.737,51
1550.737,51
1551.874,52
1551.874,51
1552.884,52
1554.6979999999999,50
1555.774,51
1556.4340000000002,49
1556.4340000000002,49
1559.573,49
1559.985,50
1560.626,50
1561.704,50
1563.652,49
1563.652,50
1564.65,49
1565.653,50
1566.653,50
1566.653,49
1568.147,50
1569.273,50
1569.273,50
1571.567,52
1572.293,52
1572.293,51
1573.3429999999998,51
1575.696,51
1576.263,53
1576.7720000000002,51
1577.326,51
1577.8790000000001,51
1580.088,50
1580.64,50
1581.195,49
1581.75,49
1584.244,48
1584.7549999999999,49
1585.385,49
1585.9589999999998,51
1588.112,51
1588.759,51
1589.27,52
1589.817,52
1592.344,52
1592.751,53
1593.2900000000002,52
1593.807,51
1594.2259999999999,53
1596.192,53
1596.192,51
1597.2079999999999,51
1597.7140000000002,50
1600.107,50
1600.107,50
1601.348,49
1601.348,49
1604.463,49
1604.463,49
1605.372,49
1605.372,49
1608.706,51
1609.4470000000001,51
1609.4470000000001,52
1609.4470000000001,52
1610.4389999999999,52
1612.866,50
1612.866,51
1613.894,51
1613.894,51
1616.588,53
1616.588,52
1616.588,50
1617.859,50
1620.867,50
1620.867,49
1620.867,49
1620.867,49
1625.191,49
1625.191,49
1625.191,49
1626.352,50
1626.352,50
1629.1409999999998,50
1629.713,50
1630.1399999999999,52
1630.1399999999999,52
1633.1960000000001,51
1633.1960000000001,51
1633.1960000000001,54
1633.1960000000001,53
1636.8400000000001,51
1636.8400000000001,50
1636.8400000000001,50
1638.066,49
1641.346,49
1642.088,49
1642.088,49
1643.0849999999998,51
1643.0849999999998,51
1645.3960000000002,51
1646.096,50
1646.7730000000001,50
1647.2089999999998,50
1649.281,49
1650.303,52
1651.304,52
1651.304,50
1653.301,51
1654.309,51
1654.309,51
1655.617,51
1655.617,51
1657.858,50
1658.6870000000001,50
1659.688,50
1659.688,49
1661.929,51
1662.685,50
1663.359,50
1663.794,51
1666.05,51
1668.0459999999998,50
1669.1039999999998,50
1669.1039999999998,50
1670.0520000000001,50
1670.0520000000001,52
1671.055,53
1672.055,53
1672.055,55
1674.302,55
1675.327,55
1675.327,54
1676.372,54
1678.316,52
1678.316,52
1679.513,50
1679.513,50
1682.107,49
1683.126,49
1684.1209999999999,50
1685.2450000000001,49
1685.614,49
1686.644,50
1686.644,50
1688.115,50
1688.115,50
1690.3619999999999,51
1691.127,51
1692.127,51
1692.127,51
1694.237,53
1695.256,53
1695.256,52
1696.383,52
1698.723,52
1699.7469999999998,51
1700.74,52
1701.737,50
1702.7350000000001,51
1703.048,53
1703.691,53
1704.715,51
1704.715,50
1706.951,50
1707.7169999999999,49
1707.7169999999999,49
1708.716,52
1710.815,52
1711.829,52
1711.829,52
1713.0330000000001,51
1714.551,51
1717.0339999999999,53
1718.055,51
1718.055,53
1719.06,52
1719.06,52
1720.071,52
1720.071,52
1721.059,51
1723.336,50
1723.336,51
1724.356,51
1724.356,51
1727.713,51
1727.713,52
1728.71,52
1729.703,52
1731.111,53
1732.296,52
1733.317,53
1733.317,53
1734.33,54
1735.313,55
1735.313,54
1736.356,52
1737.3110000000001,52
1739.8700000000001,52
1740.396,52
1740.8319999999999,52
1740.8319999999999,51
1743.856,51
1743.856,51
1744.866,51
1744.866,52
1747.853,52
1747.853,50
1748.8539999999998,52
1748.8539999999998,52
1749.855,52
1751.604,51
1752.619,51
1752.619,53
1753.616,53
1755.824,53
1756.623,52
1757.182,50
1757.8069999999998,50
1759.85,50
1760.844,49
1761.895,51
1761.895,49
1764.297,49
1764.807,49
1765.865,50
1766.8839999999998,50
1766.8839999999998,49
1768.364,50
1768.8809999999999,50
1768.8809999999999,50
1769.9609999999998,52
1772.897,52
1772.897,51
1773.895,51
1773.895,51
1776.541,53
1776.9950000000001,51
1776.9950000000001,52
1778.017,51
1778.017,52
1780.373,52
1781.122,51
1781.122,49
1782.117,49
1784.595,49
1784.595,49
1785.604,48
1785.604,50
1788.95,50
1789.769,50
1789.769,50
1790.777,51
1792.988,51
1793.769,53
1793.769,117
1794.768,200
1797.172,201
1797.172,206
1798.0629999999999,210
1799.091,214
1800.09,216
1801.445,217
1801.445,216
1803.118,216
1805.3,215
1805.817,216
1805.817,216
1806.977,217
1809.262,216
1809.262,215
1810.613,215
1810.613,214
1813.634,214
1813.634,212
1814.688,211
1815.628,207
1816.628,203
1818.048,200
1818.351,196
1819.081,194
1821.188,190
1822.1940000000002,187
1822.1940000000002,183
1823.949,179
1825.3790000000001,176
1826.693,175
1826.693,174
1826.693,175
1830.019,173
1830.019,171
1831.458,169
1832.47,168
1833.487,166
1834.5,164
1835.4859999999999,163
1835.4859999999999,160
1837.7730000000001,155
1838.267,153
1838.788,149
1838.788,148
1842.145,146
1842.685,144
1842.685,141
1843.7440000000001,137
1845.713,136
1846.6970000000001,134
1846.6970000000001,134
1847.702,134
1850.307,133
1850.307,131
1851.509,129
1851.509,128
1854.583,127
1854.583,126
1854.583,123
1858.375,123
1858.684,120
1859.2900000000002,117
1859.807,116
1862.828,113
1862.828,112
1862.828,110
1864.315,109
1866.055,107
1867.0690000000002,104
1867.0690000000002,105
1868.175,104
1870.261,103
1871.186,105
1871.186,105
1871.186,103
1874.743,100
1875.491,100
1875.491,98
1875.491,96
1878.409,95
1879.462,93
1879.462,93
1879.462,93
1880.4099999999999,91
1883.33,91
1883.33,90
1884.333,87
1884.333,87
1887.326,85
1887.326,84
1888.337,84
1888.337,84
1891.276,86
1891.276,86
1892.731,84
1892.731,84
1895.141,83
1895.141,83
1896.433,81
1896.433,79
1897.452,79
1899.033,79
1901.05,79
1901.05,78
1902.125,78
1903.158,77
1904.1779999999999,75
1904.1779999999999,73
1905.3739999999998,73
1907.828,72
1908.3509999999999,72
1908.3509999999999,73
1909.424,73
1909.424,72
1911.885,72
1912.402,71
1912.402,72
1913.654,73
1915.1309999999999,69
1916.487,69
1917.515,71
1918.566,70
1919.97,70
1919.97,68
1920.992,66
1920.992,65
1923.95,65
1923.95,65
1925.2549999999999,65
1925.762,63
1926.383,65
1928.086,67
1928.609,66
1929.6219999999998,66
1929.6219999999998,64
1932.6319999999998,64
1933.626,64
1933.626,64
1935.578,63
1935.578,63
1936.592,63
1936.592,63
1936.592,62
1940.193,62
1940.193,61
1941.1799999999998,60
1942.191,60
1942.191,59
1944.1889999999999,57
1945.189,59
1945.189,59
1946.19,59
1948.187,60
1949.181,60
1949.181,60
1950.5410000000002,60
1952.461,61
1952.975,60
1953.274,59
1953.274,59
1954.2939999999999,61
1956.548,61
1957.303,59
1957.303,58
1958.3319999999999,58
1961.294,58
1961.294,57
1961.294,57
1962.3319999999999,56
1965.301,57
1965.301,57
1966.297,57
1967.295,55
1968.408,55
1969.347,55
1969.762,57
1970.0800000000002,57
1970.0800000000002,57
1973.442,57
1973.442,57
1974.478,58
1974.478,57
1977.44,57
1977.44,56
1978.515,54
1979.503,54
1981.441,54
1982.748,53
1983.768,53
1983.768,53
1985.269,53
1985.269,55
1986.4250000000002,54
1986.4250000000002,54
1987.454,54
1989.5149999999999,54
1990.187,55
1991.221,55
1991.221,56
1993.7959999999998,56
1993.7959999999998,55
1995.3970000000002,55
1995.3970000000002,54
1997.8229999999999,54
1998.342,54
1999.358,53
2000.54,52
2001.824,52
2001.824,51
2002.837,51
2002.837,51
2003.926,51
2005.69,51
2005.69,51
2006.703,52
2006.703,52
2009.8259999999998,53
2009.8259999999998,53
2010.7740000000001,53
2011.1919999999998,54
2013.07,55
2014.274,55
2014.274,54
2015.513,54
2015.513,54
2018.393,52
2018.393,52
2018.393,52
2018.393,51
2022.3580000000002,51
2022.3580000000002,53
2022.3580000000002,51
2023.781,50
2026.2349999999997,50
2026.2349999999997,50
2026.2349999999997,49
2027.695,52
2030.3969999999997,51
2030.6760000000002,51
2030.6760000000002,53
2031.6960000000001,55
2031.6960000000001,54
2034.118,54
2035.1309999999999,52
2035.1309999999999,52
2035.1309999999999,52
2038.3700000000001,52
2039.136,51
2039.136,51
2039.136,53
2042.491,53
2042.491,51
2043.5059999999999,52
2043.5059999999999,50
2047.1180000000002,50
2047.5970000000002,49
2048.631,51
2048.631,51
2049.649,51
2050.6549999999997,55
2051.647,55
2051.647,54
2051.647,54
2054.654,52
2055.661,52
2055.661,52
2056.661,50
2058.9179999999997,51
2059.429,51
2060.4779999999996,51
2060.4779999999996,53
2063.446,52
2063.8230000000003,50
2064.8559999999998,51
2064.8559999999998,52
2065.873,49
2066.873,50
2067.872,51
2067.872,51
2068.937,53
2071.809,53
2071.809,54
2071.809,52
2073.2819999999997,54
2075.519,52
2075.519,52
2076.679,52
2076.679,51
2079.6679999999997,51
2080.486,51
2080.486,53
2081.435,52
2082.432,52
2083.433,50
2084.431,50
2084.431,49
2085.732,49
2087.5249999999996,49
2088.139,52
2088.626,52
2088.626,52
2092.1789999999996,51
2092.7690000000002,55
2093.28,54
2093.28,54
2094.3230000000003,54
2096.3500000000004,52
2096.3500000000004,52
2097.712,52
2098.645,50
2100.66,51
2100.66,51
2101.89,51
2101.89,51
2104.0429999999997,50
2104.0429999999997,50
2105.259,50
2105.8309999999997,48
2108.3759999999997,49
2108.3759999999997,49
2108.9790000000003,52
2109.445,52
2109.944,51
2112.511,51
2113.449,53
2113.449,53
2114.4449999999997,51
2116.4049999999997,50
2117.4010000000003,50
2117.4010000000003,49
2117.4010000000003,49
2120.483,49
2120.483,49
2120.483,50
2121.584,48
2124.761,48
2124.761,47
2125.817,48
2125.817,50
2125.817,50
2128.962,50
2129.474,52
2129.474,52
2130.49,51
2132.669,51
2133.6659999999997,51
2134.665,51
2134.665,51
2136.9210000000003,51
2137.448,50
2137.448,49
2138.983,48
2138.983,48
2141.209,48
2141.209,50
2142.727,50
2142.727,48
2145.039,48
2145.7929999999997,49
2146.818,49
2146.818,47
2148.7509999999997,49
2149.7830000000004,50
2150.779,49
2152.2039999999997,52
2152.2039999999997,50
2153.571,50
2154.135,50
2154.135,49
2155.515,49
2157.686,50
2157.686,50
2158.7019999999998,49
2159.777,50
2161.962,49
2161.962,50
2162.958,50
2163.948,48
2165.2599999999998,47
2166.284,47
2167.2780000000002,48
2168.2839999999997,48
2169.273,49
2169.949,51
2169.949,51
2171.043,51
2172.105,51
2173.413,52
2174.462,51
2174.462,49
2175.535,50
2178.2059999999997,49
2178.2059999999997,50
2179.344,50
2179.344,48
2181.728,48
2182.7459999999996,49
2183.802,49
2183.802,47
2184.935,47
2185.9500000000003,47
2185.9500000000003,48
2185.9500000000003,49
2187.418,48
2190.257,49
2190.257,50
2191.326,50
2191.326,50
2193.8650000000002,49
2194.918,49
2194.918,50
2196.049,51
2198.508,50
2199.606,50
2199.606,50
2201.0519999999997,50
2201.0519999999997,49
2202.067,50
2203.112,50
2203.112,48
2203.904,50
2206.417,47
2206.417,50
2207.4449999999997,50
2207.4449999999997,49
2210.744,50
2210.744,52
2211.746,52
2211.746,52
2214.828,50
2215.7200000000003,49
2216.71,49
2217.7980000000002,51
2218.307,51
2218.307,50
2219.344,50
2219.344,50
2220.362,48
2223.204,48
2223.78,47
2223.78,48
2225.226,47
2226.715,48
2227.742,49
2228.7400000000002,49
2228.7400000000002,50
2228.7400000000002,50
2231.364,51
2232.382,53
2234.385,53
2235.598,54
2235.598,52
2236.6450000000004,52
2236.6450000000004,50
2237.999,50
2239.574,49
2239.574,49
2240.709,49
2241.345,51
2243.35,51
2243.35,51
2244.3689999999997,50
2245.362,50
2245.362,50
2247.638,49
2248.203,49
2249.2169999999996,49
2250.2219999999998,51
2251.661,51
2252.1710000000003,53
2252.1710000000003,54
2253.22,52
2255.486,52
2255.486,52
2256.754,49
2257.7690000000002,49
2259.815,49
2259.815,49
2260.7659999999996,49
2261.282,49
2261.282,47
2263.523,50
2264.539,47
2265.753,48
2265.753,49
2266.766,49
2268.183,49
2268.183,52
2269.364,52
2271.386,51
2272.398,51
2272.398,53
2273.429,51
2273.429,52
2276.333,51
2277.018,50
2277.018,50
2277.018,50
2280.513,50
2281.044,51
2281.044,51
2282.134,51
2284.156,51
2285.145,51
2285.145,50
2285.145,50
2288.437,52
2288.437,52
2288.437,52
2289.815,52
2290.323,52
2292.621,53
2292.621,53
2292.621,53
2294.044,53
2296.507,52
2296.507,51
2297.52,52
2298.1349999999998,52
2300.4660000000003,51
2300.4660000000003,51
2301.4790000000003,51
2301.4790000000003,51
2304.734,51
2305.4860000000003,51
2305.4860000000003,51
2306.4849999999997,51
2306.4849999999997,52
2308.7650000000003,52
2309.79,53
2309.79,53
2310.8360000000002,54
2313.037,56
2313.037,55
2314.511,55
2314.511,54
2316.819,54
2317.828,54
2317.828,52
2318.88,53
2320.975,51
2321.985,51
2322.507,53
2322.507,53
2322.507,51
2325.9829999999997,51
2325.9829999999997,50
2327.073,52
2327.073,52
2329.0890000000004,53
2330.0930000000003,53
2330.0930000000003,53
2331.3,54
2333.526,55
2334.524,55
2334.524,54
2335.6189999999997,54
2335.6189999999997,52
2337.453,52
2337.453,52
2338.4269999999997,52
2338.886,51
2342.0350000000003,51
2342.553,51
2342.553,51
2343.571,51
2345.572,52
2345.572,52
2346.6079999999997,52
2346.6079999999997,53
2349.573,52
2350.5660000000003,53
2350.5660000000003,53
2351.675,54
2351.675,55
2353.777,54
2353.777,52
2354.7349999999997,52
2354.7349999999997,52
2358.182,50
2358.6809999999996,50
2359.2430000000004,50
2359.709,49
2362.331,51
2363.257,51
2363.257,51
2364.253,51
2365.249,50
2366.5060000000003,50
2367.532,50
2368.5299999999997,50
2368.5299999999997,51
2370.724,51
2370.724,51
2371.747,53
2371.747,53
2374.016,53
2375.031,51
2376.094,50
2376.567,50
2378.5460000000003,50
2378.5460000000003,49
2379.984,49
2379.984,48
2382.331,49
2383.5890000000004,50
2384.607,48
2384.607,50
2384.607,47
2386.949,50
2386.949,50
2386.949,50
2388.407,52
2390.341,52
2391.5829999999996,52
2391.5829999999996,52
2392.6,51
2395.3940000000002,53
2395.636,51
2396.1899999999996,51
2396.1899999999996,51
2397.051,50
2398.5029999999997,50
2400.517,49
2400.517,49
2401.558,48
2403.225,49
2403.739,50
2403.739,48
2403.739,48
2407.084,50
2408.099,50
2408.099,50
2409.311,50
2411.778,52
2411.778,52
2412.765,52
2413.36,50
2413.9849999999997,49
2415.969,49
2416.9900000000002,51
2417.988,51
2417.988,51
2418.993,50
2419.985,50
2419.985,50
2421.409,49
2423.9,50
2423.9,50
2424.89,48
2424.89,48
2427.403,50
2428.201,50
2429.19,50
2429.19,52
2429.19,53
2431.9429999999998,53
2432.968,53
2434.122,51
2434.639,53
2435.722,53
2435.722,51
2436.769,51
2436.769,52
2440.3199999999997,51
2440.3199999999997,50
2441.319,51
2441.319,49
2444.317,50
2444.317,49
2445.321,51
2445.321,51
2446.318,53
2448.315,52
2449.326,54
2449.326,52
2450.621,52
2452.212,53
2452.212,53
2452.212,51
2453.459,51
2456.494,53
2456.8979999999997,53
2457.475,51
2457.475,51
2458.4959999999996,50
2460.603,50
2461.5429999999997,49
2461.5429999999997,49
2462.538,50
2464.7239999999997,49
2465.5,50
2466.5,49
2466.5,50
2468.589,51
2468.589,52
2468.589,52
2470.1,53
2472.7169999999996,53
2472.7169999999996,51
2473.772,53
2474.1870000000004,53
2474.1870000000004,51
2477.072,51
2477.511,51
2477.511,51
2478.522,52
2480.578,52
2481.5930000000003,52
2482.5910000000003,51
2483.591,49
2484.9,49
2485.4120000000003,51
2485.4120000000003,51
2485.4120000000003,51
2489.083,54
2489.083,55
2490.096,55
2490.096,55
2490.096,55
2493.6479999999997,53
2494.062,53
2494.062,52
2494.9089999999997,53
2497.6240000000003,53
2497.6240000000003,54
2498.991,54
2498.991,52
2501.4829999999997,51
2501.4829999999997,50
2501.4829999999997,50
2502.9159999999997,49
2505.394,49
2505.394,49
2505.394,49
2506.767,51
2506.767,51
2509.852,53
2509.852,55
2509.852,54
2511.254,54
2513.745,54
2513.745,52
2513.745,52
2516.2219999999998,51
2517.2219999999998,51
2518.1330000000003,51
2518.68,53
2518.68,52
2519.705,52
2521.904,51
2522.7059999999997,50
2522.7059999999997,50
2522.7059999999997,49
2526.143,49
2527.1569999999997,49
2527.1569999999997,52
2528.337,51
2530.6009999999997,51
2530.6009999999997,51
2531.705,53
2532.7259999999997,53
2533.725,53
2534.874,51
2534.874,52
2535.889,51
2536.209,51
2538.6530000000002,52
2538.6530000000002,50
2539.731,50
2540.724,49
2542.6730000000002,51
2542.6730000000002,51
2543.723,51
2544.715,50
2546.666,50
2547.88,50
2547.88,50
2549.3109999999997,49
2550.331,49
2550.331,50
2551.325,51
2551.325,55
2552.387,55
2554.1870000000004,54
2555.3050000000003,52
2555.3050000000003,52
2556.3579999999997,52
2558.958,51
2559.535,52
2560.189,49
2560.8309999999997,50
2562.652,49
2562.652,48
2564.077,50
2564.077,50
2565.817,49
2567.1349999999998,50
2568.15,50
2568.15,52
2569.248,52
2571.265,53
2571.265,51
2572.263,51
2572.263,51
2575.27,54
2576.32,51
2576.616,51
2577.4469999999997,52
2578.9230000000002,50
2580.1639999999998,50
2580.307,49
2580.915,49
2582.509,49
2583.509,50
2583.509,51
2584.8689999999997,51
2585.893,51
2586.893,52
2587.923,51
2588.934,52
2588.934,53
2591.89,52
2591.89,52
2592.9,51
2593.938,51
2594.884,53
2595.8830000000003,53
2595.8830000000003,51
2596.882,51
2597.8819999999996,52
2599.886,52
2600.892,52
2601.355,51
2601.874,51
2603.791,50
2604.335,49
2604.335,51
2605.347,51
2608.2290000000003,51
2608.2290000000003,52
2609.212,54
2609.212,52
2611.7110000000002,53
2611.7110000000002,52
2612.724,52
2612.724,51
2613.818,51
2615.8320000000003,51
2616.8300000000004,51
2617.585,51
2618.135,51
2620.146,52
2620.146,52
2621.15,51
2621.569,52
2624.527,51
2625.234,50
2625.234,50
2626.2799999999997,51
2628.4049999999997,53
2628.714,51
2628.714,54
2629.7419999999997,54
2629.7419999999997,54
2632.744,53
2632.744,53
2633.743,52
2633.743,51
2636.777,51
2636.777,53
2636.777,51
2637.7380000000003,54
2640.854,52
2640.854,52
2641.745,51
2641.745,52
2644.958,51
2644.958,51
2644.958,51
2644.958,51
2646.471,54
2648.733,55
2649.7639999999997,55
2649.7639999999997,54
2650.652,55
2652.694,54
2652.694,53
2653.67,53
2653.67,53
2657.032,51
2657.032,51
2658.161,53
2658.161,55
2658.161,54
2661.183,52
2661.183,52
2661.183,52
2662.171,52
2665.057,52
2665.992,52
2666.991,51
2667.299,53
2668.699,53
2669.7090000000003,54
2669.7090000000003,55
2669.7090000000003,54
2673.366,54
2673.366,54
2674.402,52
2674.402,52
2675.43,52
2678.175,52
2678.175,49
2679.188,49
2679.188,50
2682.1929999999998,51
2684.193,51
2684.193,51
2685.192,50
2685.192,50
2686.1890000000003,50
2686.1890000000003,50
2687.2729999999997,52
2689.925,52
2689.925,52
2690.954,51
2691.464,51
2692.509,51
2694.264,51
2694.264,51
2695.5,52
2695.5,50
2698.09,50
2699.647,50
2700.6670000000004,49
2700.6670000000004,49
2701.668,49
2702.673,49
2702.673,49
2703.674,49
2705.586,47
2706.638,49
2706.638,50
2707.651,50
2707.651,52
2710.417,52
2710.417,49
2711.7369999999996,52
2712.087,52
2714.596,49
2715.614,52
2716.61,49
2717.619,50
2718.6180000000004,50
2718.6180000000004,49
2718.6180000000004,50
2719.955,50
2721.144,50
2722.682,48
2723.735,50
2723.735,48
2724.6800000000003,50
2726.8430000000003,50
2727.6820000000002,48
2727.6820000000002,52
2728.73,52
2731.1009999999997,52
2731.51,51
2732.536,51
2733.5370000000003,51
2734.989,53
2734.989,53
2736.008,51
2737.002,50
2737.002,50
2739.131,50
2739.641,49
2739.641,49
2741.011,49
2743.116,49
2744.184,49
2744.184,51
2745.134,51
2747.3489999999997,51
2747.8720000000003,51
2748.515,52
2749.5409999999997,54
2750.5389999999998,52
2751.704,52
2752.252,52
2752.252,52
2753.706,51
2755.358,51
2756.0750000000003,51
2756.927,53
2756.927,53
2759.8050000000003,51
2759.8050000000003,51
2760.8259999999996,50
2760.8259999999996,50
2763.705,49
2764.719,49
2764.719,49
2765.839,49
2768.192,51
2768.192,51
2769.206,51
2769.206,54
2770.578,54
2771.777,54
2772.4289999999996,54
2773.11,52
2773.11,52
2775.4159999999997,52
2776.444,50
2777.43,51
2777.43,51
2779.6479999999997,51
2780.444,51
2781.43,51
2782.433,50
2784.4410000000003,50
2784.4410000000003,50
2785.429,49
2785.429,49
2786.744,50
2788.183,51
2789.198,53
2789.4260000000004,55
2790.015,55
2792.1800000000003,55
2793.258,54
2793.258,54
2794.2,54
2796.402,52
2797.254,52
2797.254,52
2799.267,50
2800.284,49
2801.282,51
2802.336,51
2802.336,51
2803.286,51
2804.291,50
2805.289,50
2805.289,50
2806.36,50
2808.889,52
2809.373,51
2809.373,51
2810.392,51
2812.7,53
2812.7,53
2812.7,53
2814.574,52
2814.574,52
2816.587,52
2816.587,52
2817.677,49
2817.677,49
2820.692,49
2820.692,49
2820.692,50
2820.692,48
2825.198,50
2825.198,50
2825.198,50
2826.4680000000003,49
2828.9559999999997,49
2828.9559999999997,52
2830.172,51
2830.7980000000002,51
2830.7980000000002,53
2833.296,55
2833.296,53
2833.296,52
2833.296,52
2837.065,50
2838.154,51
2838.154,50
2838.154,50
2841.687,51
2841.687,50
2841.687,51
2842.6969999999997,51
2845.471,51
2845.471,51
2845.471,50
2846.482,50
2846.482,52
2848.967,52
2849.98,52
2849.98,52
2851.02,52
2853.3379999999997,51
2854.428,51
2854.428,51
2855.442,51
2857.987,51
2857.987,51
2859.163,50
2859.163,50
2860.2400000000002,50
2861.631,48
2862.644,48
2863.863,48
2863.863,50
2865.065,50
2867.397,50
2867.6569999999997,50
2868.264,51
2869.2929999999997,51
2870.301,51
2871.34,51
2871.34,51
2874.304,51
2874.304,51
2875.357,51
2876.341,51
2876.341,50
2878.2999999999997,50
2878.2999999999997,50
2879.2960000000003,49
2880.2949999999996,49
2882.3050000000003,49
2883.295,49
2884.2889999999998,51
2885.289,51
2886.275,50
2886.828,50
2887.6710000000003,52
2887.6710000000003,52
2890.911,52
2890.911,52
2892.0249999999996,52
2892.0249999999996,51
2893.046,51
2894.049,53
2895.558,53
2895.558,51
2896.782,51
2898.794,50
2898.794,50
2900.1800000000003,50
2900.1800000000003,51
2902.197,49
2903.195,50
2903.565,49
2903.565,49
2907.095,51
2907.395,50
2907.395,52
2908.4660000000003,53
2908.4660000000003,52
2911.327,53
2911.327,53
2911.327,54
2912.6949999999997,53
2915.374,53
2915.889,52
2916.904,50
2916.904,50
2919.316,51
2919.316,49
2919.316,49
2920.419,49
2920.419,48
2923.6040000000003,50
2924.544,48
2924.544,50
2924.544,50
2927.67,50
2928.1890000000003,48
2928.1890000000003,50
2929.291,52
2931.6110000000003,52
2932.634,53
2933.628,51
2934.961,51
2934.961,53
2935.984,53
2935.984,53
2936.986,52
2937.975,52
2939.2459999999996,52
2940.2720000000004,50
2940.2720000000004,50
2941.589,49
2943.821,49
2944.6020000000003,49
2944.6020000000003,51
2945.637,53
2947.969,53
2949.005,54
2950.0,54
2951.0550000000003,54
2951.9959999999996,54
2951.9959999999996,54
2953.055,52
2954.002,52
2954.002,52
2956.131,51
2956.131,51
2957.1519999999996,51
2957.1519999999996,51
2959.944,53
2960.967,51
2960.967,51
2961.967,52
2963.527,51
2964.545,50
2965.539,50
2965.539,51
2967.543,52
2968.5389999999998,53
2968.5389999999998,53
2969.577,56
2969.577,57
2972.5950000000003,56
2973.147,55
2973.656,54
2974.049,54
2976.089,54
2977.0690000000004,53
2977.0690000000004,53
2978.446,53
2980.7419999999997,52
2980.7419999999997,51
2982.132,51
2983.148,53
2984.1530000000002,53
2984.1530000000002,51
2985.157,51
2986.147,54
2986.147,52
2988.907,54
2989.9300000000003,54
2990.0319999999997,54
2990.492,55
2993.182,53
2993.182,53
2994.119,53
2994.119,55
2997.167,55
2997.167,54
2998.585,54
2999.602,54
3000.6020000000003,53
3001.8379999999997,52
3001.8379999999997,52
3003.15,51
3003.714,51
3004.782,51
3005.725,51
3005.725,53
3005.725,55
3009.6639999999998,55
3010.1710000000003,55
3010.1710000000003,54
3011.287,54
3013.2870000000003,54
3013.2870000000003,53
3013.2870000000003,52
3014.7110000000002,53
3015.219,52
3017.2889999999998,51
3018.484,53
3018.484,53
3018.484,53
3021.496,53
3021.496,52
3022.497,50
3022.497,50
3025.4970000000003,52
3025.4970000000003,52
3026.4950000000003,52
3026.4950000000003,53
3029.505,53
3029.505,55
3030.5,55
3030.5,55
3030.5,55
3033.7079999999996,54
3033.7079999999996,54
3034.7149999999997,54
3034.7149999999997,52
3037.723,52
3037.723,52
3038.724,52
3038.724,51
3041.727,51
3042.7270000000003,51
3042.7270000000003,53
3043.726,51
3045.727,51
3046.728,52
3046.728,52
3047.736,52
3048.297,52
3050.319,53
3050.319,53
3051.329,53
3051.803,53
3053.61,55
3054.97,54
3054.97,54
3055.52,52
3058.5719999999997,52
3058.5719999999997,54
3059.531,52
3059.531,52
3059.531,52
3062.6839999999997,49
3062.6839999999997,49
3063.572,49
3063.572,51
3066.777,51
3066.777,51
3066.777,53
3066.777,54
3070.656,54
3070.656,54
3071.34,52
3071.597,52
3074.621,52
3074.621,52
3074.621,51
3074.621,53
3074.621,53
3079.1,53
3079.1,54
3080.0,54
3080.0,52
3082.105,52
3083.52,52
3083.52,52
3083.52,52
3087.19,51
3087.19,51
3088.032,53
3088.1150000000002,53
3091.4990000000003,54
3091.4990000000003,54
3091.4990000000003,54
3092.765,54
3092.765,52
3095.714,52
3095.94,50
3095.94,49
3095.94,50
3098.976,49
3099.955,51
3099.955,51
3099.955,51
3103.0829999999996,50
3104.016,50
3104.016,50
3105.014,50
3107.8329999999996,50
3107.8329999999996,50
3108.846,51
3108.846,51
3109.846,51
3112.0,51
3112.0,51
3112.899,51
3113.479,51
3115.402,51
3116.426,50
3117.433,50
3118.11,50
3119.143,49
3120.147,49
3121.135,49
3121.135,49
3122.4539999999997,50
3124.422,47
3124.422,48
3125.9320000000002,49
3126.4449999999997,49
3128.4719999999998,49
3128.4719999999998,50
3129.473,50
3129.473,52
3132.474,52
3134.474,50
3134.916,50
3136.025,51
3136.025,51
3137.045,51
3137.045,51
3138.043,50
3139.041,50
3140.043,50
3141.044,48
3142.04,48
3142.284,48
3144.568,48
3144.568,48
3144.568,51
3146.2720000000004,50
3148.4939999999997,50
3149.969,52
3149.969,52
3150.897,52
3152.667,52
3152.667,52
3153.424,50
3153.424,51
3153.424,51
3156.302,51
3157.256,51
3157.256,52
3158.255,50
3160.316,50
3161.2870000000003,50
3161.2870000000003,49
3161.2870000000003,49
3164.879,49
3165.2650000000003,48
3165.2650000000003,50
3166.255,52
3166.255,52
3168.798,53
3168.798,54
3169.817,54
3170.451,53
3173.223,51
3173.223,53
3173.223,54
3174.455,53
3177.3889999999997,54
3177.3889999999997,54
3178.554,54
3178.554,53
3181.294,52
3181.294,52
3182.243,50
3183.2400000000002,51
3184.243,51
3185.294,51
3186.246,53
3186.246,53
3187.249,53
3189.243,54
3190.252,54
3190.252,54
3191.2509999999997,53
3193.2520000000004,52
3194.242,52
3194.242,52
3195.2400000000002,51
3197.24,53
3198.2400000000002,53
3199.2419999999997,53
3199.2419999999997,52
3200.623,51
3201.152,50
3202.2110000000002,50
3203.1710000000003,49
3204.167,49
3206.1670000000004,50
3206.1670000000004,51
3207.166,53
3207.166,55
3210.178,55
3210.178,55
3211.166,55
3211.166,54
3214.1769999999997,54
3214.1769999999997,54
3215.177,52
3216.167,52
3216.167,52
3218.2909999999997,51
3218.2909999999997,51
3218.2909999999997,51
3220.2160000000003,51
3222.236,51
3222.7450000000003,51
3223.771,50
3223.771,50
3225.811,51
3226.7760000000003,52
3226.7760000000003,52
3226.7760000000003,52
3229.813,52
3230.769,53
3230.769,56
3231.759,55
3231.759,55
3234.7929999999997,54
3234.7929999999997,54
3235.7580000000003,54
3235.7580000000003,52
3238.7619999999997,52
3238.7619999999997,52
3238.7619999999997,52
3239.795,50
3242.76,49
3242.76,51
3242.76,51
3243.757,51
3243.757,51
3246.758,54
3247.7580000000003,55
3247.7580000000003,54
3248.764,54
3251.2509999999997,54
3251.2509999999997,53
3252.355,53
3252.8709999999996,53
3254.5969999999998,51
3255.608,53
3255.608,54
3255.608,54
3258.663,54
3259.616,54
3259.616,54
3260.616,52
3260.616,52
3262.6780000000003,52
3263.616,51
3263.616,50
3264.6099999999997,51
3266.994,53
3268.005,55
3268.005,55
3268.005,55
3271.0099999999998,55
3272.014,54
3272.014,54
3272.014,54
3275.0080000000003,54
3276.0060000000003,52
3276.0060000000003,52
3277.004,52
3277.004,51
3279.019,53
3280.008,53
3280.008,52
3281.015,52
3283.007,51
3284.1369999999997,52
3284.645,52
3284.645,52
3287.7000000000003,52
3287.7000000000003,53
3288.654,53
3288.654,53
3291.715,55
3291.715,55
3292.667,55
3293.701,55
3293.701,54
3295.66,54
3296.668,54
3296.668,52
3297.679,52
3299.656,52
3299.656,52
3301.0510000000004,51
3301.0510000000004,51
3304.1059999999998,51
3304.1059999999998,53
3305.103,55
3305.103,54
3308.124,54
3308.124,55
3309.0860000000002,54
3309.0860000000002,53
3310.069,53
3312.073,53
3313.063,52
3314.0649999999996,51
3314.0649999999996,51
3316.447,53
3316.447,53
3317.446,54
3317.656,52
3320.481,54
3320.481,52
3321.502,52
3322.008,52
3322.008,49
3325.0060000000003,49
3325.0060000000003,49
3325.995,51
3325.995,51
3329.142,53
3329.142,54
3330.137,54
3330.137,54
3332.451,52
3333.659,53
3334.67,52
3334.67,51
3337.048,50
3337.418,51
3337.418,51
3338.431,53
3338.431,53
3341.323,51
3341.323,50
3342.382,51
3343.3160000000003,50
3345.074,50
3345.585,52
3345.585,52
3346.7850000000003,53
3348.461,55
3349.774,56
3349.774,55
3349.774,55
3352.862,55
3353.795,54
3353.795,54
3354.848,54
3354.848,52
3358.122,53
3358.4269999999997,53
3359.45,52
3359.7070000000003,52
3361.747,53
3361.747,53
3362.76,51
3362.76,51
3365.1870000000004,54
3366.137,54
3367.133,53
3368.181,53
3369.822,53
3369.822,53
3369.822,53
3371.194,53
3371.708,54
3373.989,55
3374.727,55
3375.774,54
3375.774,54
3378.239,54
3378.821,54
3378.821,52
3379.96,52
3382.276,52
3382.276,51
3383.675,51
3383.675,51
3386.093,53
3386.093,51
3387.405,53
3387.405,54
3388.432,54
3390.498,54
3390.498,53
3391.866,52
3392.88,52
3394.408,51
3394.408,51
3395.474,51
3396.475,53
3398.4269999999997,53
3398.4269999999997,53
3399.431,52
3400.429,52
3401.423,52
3402.468,52
3403.4230000000002,50
3403.4230000000002,49
3404.7000000000003,49
3406.71,49
3406.71,51
3408.1549999999997,51
3408.68,54
3410.8540000000003,53
3411.76,54
3411.76,52
3412.704,52
3414.968,52
3415.7090000000003,50
3416.704,50
3416.704,51
3417.719,51
3418.707,51
3419.745,51
3419.745,51
3420.711,51
3422.931,51
3423.7090000000003,50
3424.712,50
3424.712,50
3427.0499999999997,50
3427.579,52
3427.579,52
3428.8219999999997,51
3431.308,51
3431.308,51
3432.689,51
3433.706,51
3433.706,51
3435.106,51
3436.1150000000002,51
3436.1150000000002,52
3437.128,50
3439.083,49
3439.083,49
3440.444,49
3441.458,49
3443.921,47
3443.921,48
3445.064,49
3445.064,49
3447.562,49
3447.951,52
3449.0389999999998,50
3449.0389999999998,53
3450.5,54
3451.01,54
3452.026,55
3453.027,53
3453.027,52
3455.197,52
3456.404,52
3456.404,51
3457.422,52
3459.6969999999997,52
3460.213,50
3461.2250000000004,49
3461.2250000000004,51
3462.32,51
3463.684,51
3464.7169999999996,51
3465.712,51
3465.712,50
3467.9509999999996,52
3468.489,52
3469.509,52
3469.509,52
3471.963,51
3472.48,51
3472.48,51
3473.8340000000003,51
3476.236,51
3476.236,51
3477.392,50
3478.46,50
3478.969,50
3480.172,48
3481.1899999999996,48
3481.1899999999996,48
3482.189,48
3484.315,48
3485.243,50
3485.243,50
3485.243,51
3488.71,50
3489.379,51
3490.4030000000002,51
3490.4030000000002,51
3492.785,53
3492.785,51
3492.785,51
3494.8540000000003,50
3494.8540000000003,51
3496.925,50
3497.9249999999997,50
3497.9249999999997,50
3498.866,49
3500.873,49
3500.873,49
3502.086,49
3502.086,50
3505.169,49
3505.678,50
3505.678,50
3506.96,52
3509.105,52
3509.105,52
3510.1870000000004,51
3510.7599999999998,51
3510.7599999999998,51
3513.7839999999997,53
3513.7839999999997,51
3514.8030000000003,51
3515.803,50
3516.801,50
3517.949,49
3517.949,49
3519.574,49
3521.073,49
3522.145,50
3523.145,50
3523.145,48
3524.129,50
3525.254,50
3525.8050000000003,50
3525.8050000000003,50
3527.0190000000002,52
3529.268,52
3530.281,51
3530.281,51
3531.53,51
3533.212,51
3534.228,51
3534.228,51
3535.368,50
3536.399,50
3537.8630000000003,50
3538.958,49
3538.958,48
3540.0049999999997,49
3542.381,48
3542.381,49
3543.396,49
3543.396,51
3545.893,51
3546.924,51
3547.017,52
3548.149,52
3549.164,52
3550.222,52
3551.387,52
3551.387,51
3553.6690000000003,51
3554.685,51
3554.685,51
3555.779,51
3555.779,51
3558.25,51
3559.3599999999997,50
3559.3599999999997,50
3560.46,49
3562.6639999999998,47
3562.6639999999998,49
3563.766,48
3563.766,49
3565.8940000000002,49
3567.0009999999997,52
3567.65,52
3568.2839999999997,52
3568.857,52
3570.382,51
3570.382,53
3571.664,53
3571.664,54
3574.8630000000003,52
3574.8630000000003,52
3575.862,52
3576.946,52
3578.1589999999997,52
3579.174,49
3580.315,50
3581.329,49
3582.566,49
3582.566,48
3583.7940000000003,48
3583.7940000000003,49
3584.863,51
3586.814,51
3586.814,51
3588.27,52
3588.27,52
3591.213,52
3591.848,50
3591.848,50
3593.007,50
3595.172,49
3595.172,49
3596.349,51
3596.349,51
3599.263,53
3600.279,51
3600.279,51
3601.281,52
3602.276,50
3603.284,52
3603.284,52
3604.3379999999997,50
3605.2819999999997,51
3607.2690000000002,51
3608.2830000000004,53
3608.677,55
3608.677,55
3611.501,55
3611.501,54
3612.514,54
3613.09,54
3615.003,52
3616.424,52
3616.938,52
3616.938,53
3617.956,53
3620.01,53
3620.01,53
3621.318,53
3621.318,51
3623.599,52
3624.17,51
3625.242,51
3625.242,52
3628.187,52
3628.187,52
3629.1890000000003,52
3630.0080000000003,52
3631.987,51
3633.016,51
3633.527,53
3634.546,53
3634.546,53
3636.024,52
3636.739,54
3636.739,52
3637.753,52
3639.922,52
3640.7509999999997,52
3640.7509999999997,51
3642.2180000000003,50
3643.876,51
3644.893,51
3645.889,53
3645.889,52
3647.059,54
3648.9449999999997,54
3649.9739999999997,52
3649.9739999999997,52
3650.967,53
3652.4390000000003,51
3652.4390000000003,51
3653.512,51
3654.013,51
3656.605,51
3657.593,51
3658.406,51
3658.9230000000002,52
3659.9919999999997,51
3660.94,50
3660.94,49
3662.0029999999997,49
3662.5679999999998,49
3664.681,49
3664.681,51
3666.092,51
3667.182,53
3668.199,53
3669.1980000000003,53
3669.832,52
3670.4379999999996,52
3672.98,52
3672.98,50
3674.413,51
3674.413,49
3676.492,50
3677.488,50
3678.483,50
3678.483,49
3679.764,49
3681.016,52
3682.03,49
3682.03,49
3683.084,48
3684.712,49
3685.724,49
3685.724,51
3687.09,51
3689.409,53
3689.409,55
3690.668,54
3691.192,54
3693.4900000000002,54
3693.4900000000002,52
3694.761,52
3694.761,52
3695.78,51
3697.775,51
3698.777,51
3698.777,51
3699.8790000000004,51
3701.255,51
3702.324,50
3702.324,50
3704.268,50
3705.3650000000002,50
3705.884,50
3705.884,52
3707.116,52
3707.6349999999998,51
3710.01,51
3710.7619999999997,53
3710.7619999999997,53
3711.926,51
3713.77,52
3714.292,52
3715.306,50
3716.368,51
3717.378,52
3718.391,50
3718.391,51
3719.675,49
3721.917,49
3722.706,51
3722.706,51
3724.136,50
3724.136,50
3726.245,50
3726.824,52
3726.824,51
3728.138,52
3730.255,52
3730.7290000000003,51
3731.807,51
3731.807,51
3733.76,51
3734.757,51
3734.757,51
3735.883,50
3738.52,50
3739.04,50
3739.04,50
3740.1710000000003,49
3740.1710000000003,49
3742.674,49
3743.193,48
3743.193,49
3744.482,51
3746.6710000000003,51
3747.284,54
3747.284,54
3748.427,54
3749.688,52
3751.1130000000003,52
3752.126,52
3752.126,51
3755.133,51
3755.133,51
3756.1270000000004,51
3756.1270000000004,51
3757.221,51
3759.248,51
3759.248,50
3760.2639999999997,50
3761.302,48
3763.299,47
3763.299,48
3763.299,47
3764.777,49
3766.967,49
3767.971,51
3768.3970000000004,51
3769.127,51
3771.277,53
3771.789,53
3771.789,53
3773.274,51
3773.274,52
3775.538,50
3775.538,50
3776.611,49
3777.121,50
3779.259,50
3780.3300000000004,49
3780.3300000000004,50
3781.275,48
3783.5480000000002,50
3783.5480000000002,50
3784.683,48
3784.683,49
3785.7560000000003,50
3787.48,52
3787.48,51
3788.716,51
3788.716,51
3791.554,53
3792.157,51
3793.241,51
3793.241,51
3795.422,50
3796.188,52
3797.181,52
3797.181,52
3799.209,52
3800.224,51
3800.224,51
3801.261,53
3802.328,53
3803.3450000000003,54
3804.337,54
3805.332,54
3805.332,54
3808.275,54
3808.847,54
3808.847,53
3809.986,53
3812.221,53
3812.754,55
3813.7729999999997,55
3813.7729999999997,54
3815.778,52
3816.84,54
3817.35,53
3817.35,52
3818.527,52
3820.364,51
3820.364,51
3821.784,51
3822.293,51
3824.5110000000004,51
3825.5249999999996,52
3825.5249999999996,52
3826.779,54
3827.995,52
3829.4190000000003,52
3829.979,52
3829.979,52
3832.468,51
3833.493,53
3833.493,53
3834.493,53
3835.541,53
3836.8669999999997,54
3836.8669999999997,52
3836.8669999999997,52
3838.321,50
3841.193,49
3841.193,49
3842.1910000000003,49
3843.241,50
3845.079,50
3845.7650000000003,50
3846.7639999999997,50
3846.7639999999997,52
3847.875,52
3849.1330000000003,51
3850.1620000000003,53
3850.1620000000003,55
3851.1530000000002,53
3853.043,52
3853.709,50
3854.25,52
3855.262,50
3856.611,49
3857.516,49
3858.451,49
3858.451,49
3861.252,50
3861.763,48
3862.829,50
3862.829,50
3863.78,47
3865.79,50
3866.893,50
3867.41,51
3867.41,52
3869.428,52
3869.428,51
3870.422,51
3870.422,53
3873.6839999999997,53
3873.6839999999997,51
3874.9570000000003,51
3875.509,50
3877.928,51
3878.159,51
3879.241,52
3879.241,49
3880.181,49
3882.192,49
3883.3410000000003,49
3883.3410000000003,49
3884.3540000000003,50
3885.362,50
3886.359,52
3886.359,52
3887.419,52
3889.359,53
3890.775,53
3891.3419999999996,53
3891.3419999999996,55
3893.595,55
3894.355,53
3895.409,54
3895.7419999999997,54
3895.7419999999997,52
3898.821,52
3899.848,52
3899.848,52
3900.836,51
3902.189,51
3902.758,51
3902.758,52
3903.783,51
3906.172,54
3906.707,54
3907.777,54
3907.777,54
3908.725,56
3910.775,54
3910.775,53
3911.781,53
3912.7239999999997,56
3914.437,55
3915.011,55
3916.276,54
3916.276,54
3918.688,52
3919.0049999999997,52
3920.0879999999997,52
3921.038,52
3922.087,51
3923.029,51
3923.029,53
3924.029,55
3925.0280000000002,55
3926.9120000000003,55
3927.942,55
3927.942,54
3928.941,55
3930.937,54
3931.937,53
3932.935,52
3934.072,52
3935.142,51
3935.833,53
3935.833,53
3936.8500000000004,51
3939.212,51
3940.031,54
3940.031,52
3941.306,52
3941.306,52
3943.454,50
3943.992,49
3945.069,50
3945.069,49
3947.5609999999997,53
3947.5609999999997,53
3948.788,55
3949.806,54
3950.809,54
3951.8070000000002,54
3952.803,54
3952.803,52
3954.9919999999997,52
3956.014,52
3956.014,51
3957.0029999999997,51
3957.0029999999997,51
3959.437,51
3960.433,51
3960.433,51
3961.768,50
3963.893,50
3963.893,50
3965.226,50
3966.25,51
3967.347,52
3967.347,52
3968.9519999999998,53
3969.5490000000004,53
3971.1059999999998,53
3972.108,53
3972.108,53
3973.567,52
3973.567,52
3975.854,50
3976.5950000000003,50
3977.591,50
3977.591,49
3979.8239999999996,49
3980.587,48
3981.591,48
3982.587,48
3983.587,50
3984.96,50
3984.96,50
3985.9849999999997,50
3986.977,49
3988.233,52
3988.233,50
3989.304,52
3989.304,50
3992.31,49
3992.31,49
3993.2940000000003,49
3994.26,49
3996.307,50
3997.2470000000003,51
3997.2470000000003,51
3998.485,51
4000.267,50
4000.805,50
4001.8320000000003,49
4002.263,50
4002.866,50
4004.88,50
4004.88,50
4005.88,52
4006.8830000000003,52
4008.612,52
4009.1979999999994,51
4009.1979999999994,51
4010.4579999999996,53
4012.8769999999995,53
4012.8769999999995,51
4014.2290000000003,52
4014.803,50
4015.962,50
4017.335,50
4017.335,49
4018.3540000000003,49
4019.5689999999995,49
4021.062,48
4021.571,50
4021.571,50
4022.9629999999997,48
4024.9439999999995,50
4026.0150000000003,50
4026.0150000000003,50
4026.9649999999997,52
4029.1670000000004,52
4029.967,51
4029.967,49
4031.0180000000005,51
4032.006,51
4032.96,51
4033.9669999999996,51
4035.005,51
4035.005,51
4037.3669999999997,50
4037.743,50
4038.8210000000004,50
4038.8210000000004,49
4040.8280000000004,50
4041.8260000000005,49
4042.771,50
4042.771,50
4044.995,49
4045.832,50
4046.7700000000004,52
4046.7700000000004,52
4047.764,52
4049.9359999999997,52
4049.9359999999997,50
4051.254,49
4051.254,51
4053.719,51
4053.719,51
4054.9160000000006,51
4055.426,50
4057.745,50
4058.224,50
4058.879,49
4058.879,50
4061.905,50
4061.905,49
4062.907,50
4062.907,48
4063.9570000000003,50
4065.9219999999996,50
4066.9069999999997,50
4067.9109999999996,50
4067.9109999999996,50
4069.9059999999995,50
4070.9099999999994,51
4070.9099999999994,51
4071.9060000000004,51
4073.958,51
4074.9120000000003,51
4075.9559999999997,52
4075.9559999999997,50
4078.1150000000002,51
4078.9160000000006,50
4078.9160000000006,49
4079.9120000000003,49
4079.9120000000003,48
4082.7159999999994,48
4084.718,50
4084.718,50
4086.1539999999995,49
4086.1539999999995,52
4087.102,51
4087.732,51
4088.303,53
4090.121,53
4090.901,55
4091.899,53
4091.899,52
4092.9599999999996,52
4094.902,52
4095.956,50
4095.956,52
4096.898,50
4098.893999999999,51
4100.893,51
4100.893,51
4101.9220000000005,51
4102.936,51
4102.936,50
4104.074,52
4104.074,52
4107.387,52
4107.387,52
4108.485,52
4109.077,51
4109.7029999999995,51
4111.22,53
4112.254,53
4112.254,53
4113.4839999999995,53
4114.999,52
4117.348,52
4117.348,51
4118.374,50
4119.447,49
4119.961,50
4119.961,49
4120.981,49
4123.079,49
4123.079,50
4124.31,51
4124.818,50
4124.818,50
4127.789,52
4128.393,54
4128.393,52
4129.506,52
4132.281,52
4133.298,51
4133.298,51
4134.294,51
4135.398999999999,53
4135.398999999999,55
4136.415,54
4136.415,54
4138.795,54
4140.119000000001,52
4140.119000000001,52
4141.345,52
4141.345,50
4144.173000000001,51
4144.173000000001,53
4144.173000000001,55
4145.702,55
4148.057,55
4148.057,56
4149.517000000001,55
4150.532,54
4151.735000000001,54
4152.758000000001,53
4152.758000000001,53
4153.749000000001,53
4154.7919999999995,53
4156.334,53
4157.329,53
4157.329,54
4158.327,54
4160.25,54
4160.763,52
4161.811,52
4161.811,52
4164.432,50
4165.727000000001,51
4166.747,51
4166.747,55
4168.428,55
4168.428,55
4168.428,55
4169.938,54
4171.081,54
4173.187000000001,53
4173.187000000001,52
4174.205,53
4174.205,51
4176.203,51
4177.253000000001,51
4178.204,51
4178.204,51
4181.206999999999,51
4181.206999999999,51
4182.2,51
4183.2,50
4184.199,52
4185.356,52
4186.212,53
4186.762,53
4186.762,55
4188.98,56
4188.98,57
4189.987999999999,55
4189.987999999999,55
4192.618,54
4193.6410000000005,54
4193.6410000000005,52
4194.63,53
4197.085999999999,53
4197.599,53
4198.165,52
4198.719,51
4201.206,51
4201.825000000001,51
4202.429,51
4202.806,51
4203.205,54
4205.219999999999,54
4206.22,54
4206.22,55
4206.22,53
4209.533,54
4209.533,53
4210.371,53
4210.371,52
4213.6230000000005,53
4214.356000000001,53
4214.356000000001,54
4214.356000000001,53
4216.7880000000005,51
4217.793000000001,50
4217.793000000001,51
4217.793000000001,50
4217.793000000001,49
4221.637000000001,49
4222.005,48
4222.4890000000005,49
4222.4890000000005,51
4225.755,51
4226.545,53
4226.545,52
4226.545,54
4229.75,52
4229.75,52
4230.543,52
4230.543,51
4230.543,50
4233.63,49
4233.63,49
4234.638,51
4234.638,51
4237.917,52
4238.697,51
4239.389,50
4239.88,50
4242.154,50
4242.913,50
4242.913,48
4243.96,48
4246.155,49
4246.965999999999,49
4246.965999999999,51
4247.911,51
4250.33,53
4250.33,53
4251.327,53
4252.380999999999,53
4252.380999999999,52
4254.34,52
4255.329,52
4255.329,50
4256.388,49
4258.831,49
4258.831,49
4260.205,49
4260.205,50
4262.501,50
4262.501,50
4263.993,48
4263.993,50
4265.101,50
4266.911,50
4266.911,52
4268.241,52
4269.266,52
4270.328,50
4271.639999999999,49
4272.151,49
4272.151,51
4275.251,51
4275.251,51
4276.44,50
4276.44,50
4279.191,50
4279.527,50
4280.4130000000005,47
4280.4130000000005,48
4281.446,47
4283.478999999999,47
4284.477,49
4284.477,51
4285.736,51
4287.352,53
4287.352,52
4287.352,52
4288.48,52
4291.551,50
4292.504,50
4292.504,50
4293.491,49
4293.491,49
4295.781,49
4295.781,48
4296.855,50
4297.414,50
4299.176,48
4301.192999999999,50
4301.192999999999,50
4302.3769999999995,48
4303.263,48
4304.346,50
4304.346,49
4304.346,49
4307.564,49
4308.637,50
4308.637,50
4309.583,49
4309.583,50
4311.955,49
4312.467,49
4312.467,49
4313.823,47
4315.727,49
4317.745999999999,48
4317.745999999999,49
4318.741,49
4320.070000000001,49
4320.3279999999995,47
4321.083,47
4321.576,47
4321.576,48
4324.602,49
4324.602,49
4325.603,49
4325.603,50
4328.244,50
4328.244,51
4329.354,50
4329.354,51
4331.897,50
4334.112,49
4334.112,49
4335.182,50
4336.263,50
4336.263,49
4337.355,50
4337.355,50
4338.476,49
4340.9890000000005,47
4340.9890000000005,48
4342.08,48
4343.091,49
4344.433,49
4344.433,49
4345.972,49
4345.972,52
4348.72,52
4350.075000000001,52
4351.0869999999995,52
4351.0869999999995,52
4352.811,49
4352.811,50
4353.893,49
4353.893,50
4354.908,50
4357.148999999999,49
4358.215999999999,50
4358.282,50
4358.282,50
4361.012,48
4361.729,50
4362.28,50
4363.004,50
4365.700000000001,50
4366.723999999999,51
4367.724,52
4367.724,51
4368.728,51
4369.727,54
4369.727,53
4370.723,54
4371.726,52
4372.934,50
4374.015,50
4374.015,50
4375.032,51
4376.898999999999,49
4377.914,49
4378.981,49
4379.4490000000005,49
4381.395,50
4382.929,50
4383.924,48
4384.923,49
4384.923,49
4385.925,51
4386.932,51
4386.932,51
4386.932,51
4389.764999999999,53
4390.281,51
4390.281,51
4391.467,51
4393.658,50
4393.658,50
4393.658,50
4395.128,50
4398.087,49
4398.087,49
4399.356,49
4400.371,49
4400.919,49
4401.896,49
4402.521,48
4402.521,48
4403.5599999999995,50
4405.438,49
4406.518,49
4406.518,50
4407.829000000001,49
4410.003,50
4410.003,49
4411.0779999999995,50
4412.021000000001,49
4412.021000000001,50
4414.253000000001,48
4415.023999999999,50
4416.021,50
4417.424,50
4417.424,48
4418.936000000001,50
4419.631,48
4420.143,49
4422.054,48
4423.074,47
4424.068,47
4424.068,50
4426.56,50
4426.56,52
4427.95,52
4427.95,52
4428.969,52
4430.773,51
4431.284,51
4432.382,51
4433.398999999999,51
4434.405,51
4435.5289999999995,51
4435.5289999999995,50
4436.5560000000005,50
4439.058,50
4439.579,49
4439.579,48
4439.579,48
4443.0019999999995,48
4443.0019999999995,48
4444.02,49
4444.02,51
4445.013,51
4447.292,53
4447.292,52
4448.286,52
4449.284,54
4451.552000000001,52
4451.552000000001,52
4451.552000000001,52
4452.562999999999,51
4455.128000000001,49
4455.128000000001,50
4456.145,51
4456.145,51
4459.146,51
4459.146,51
4459.146,51
4459.146,50
4460.5,50
4463.477,50
4463.477,50
4464.1849999999995,50
4464.1849999999995,51
4467.121999999999,52
4467.121999999999,51
4468.133,51
4468.133,51
4471.9490000000005,51
4471.9490000000005,51
4471.9490000000005,51
4471.9490000000005,51
4473.383,50
4475.482999999999,50
4475.482999999999,50
4476.4929999999995,50
4476.4929999999995,50
4479.373,49
4480.384,48
4480.384,48
4480.384,48
4483.815,48
4483.815,49
4483.815,49
4484.828,50
4488.1,50
4488.1,52
4489.110000000001,52
4489.110000000001,52
4489.110000000001,51
4492.1939999999995,50
4493.116,51
4493.116,51
4494.1630000000005,51
4496.111,51
4497.167,50
4497.167,50
4498.286,50
4499.831999999999,48
4500.848999999999,47
4500.848999999999,47
4501.852000000001,48
4504.3,50
4504.3,50
4505.6900000000005,50
4505.901,50
4505.901,50
4508.166,50
4508.932,49
4508.932,50
4510.19,48
4512.399,50
4512.399,50
4513.717,50
4513.717,48
4516.137,48
4517.217,47
4518.232,47
4518.232,47
4520.385,47
4520.905,49
4520.905,49
4521.917,48
4522.395,48
4525.227,47
4525.523,48
4526.169000000001,50
4527.1939999999995,50
4528.444,50
4528.444,49
4529.935,50
4530.948,50
4532.953,49
4532.953,50
4534.378000000001,50
4534.378000000001,48
4535.389,50
4536.401,50
4537.535,48
4538.548,47
4538.548,47
4541.467,47
4541.467,47
4542.485,47
4542.485,48
4544.7699999999995,49
4545.794,49
4546.286,47
4546.869,48
4549.076,48
4550.073,50
4551.107,50
4551.107,47
4552.2660000000005,50
4553.286,48
4554.336,49
4554.336,49
4554.336,47
4557.68,48
4558.75,50
4558.75,47
4559.6990000000005,48
4561.817,49
4562.754,47
4562.754,47
4563.763,48
4563.763,48
4566.114,50
4567.13,51
4567.13,50
4568.367,50
4569.8189999999995,50
4570.490000000001,48
4570.490000000001,48
4571.574,48
4574.28,47
4574.28,47
4575.4039999999995,47
4576.415,48
4578.4310000000005,49
4578.4310000000005,49
4579.574,47
4579.574,46
4580.593000000001,46
4582.757,47
4583.78,47
4584.786,45
4584.786,46
4585.775,47
4586.786,50
4587.304999999999,52
4587.809,50
4589.871999999999,50
4590.9529999999995,49
4590.9529999999995,50
4592.142,50
4593.167,49
4594.378,50
4595.411,50
4595.411,50
4596.695000000001,48
4598.941,47
4600.939,48
4600.939,47
4602.3189999999995,45
4602.3189999999995,45
4603.334,48
4604.376,49
4604.376,51
4606.866,51
4606.866,51
4608.111,52
4608.6,51
4609.1720000000005,50
4610.954000000001,49
4611.779,50
4611.779,48
4612.829,50
4615.018,50
4615.7789999999995,50
4616.775,48
4617.77,47
4618.7699999999995,48
4618.7699999999995,47
4619.780000000001,48
4620.78,49
4622.775,47
4623.786,47
4623.786,48
4624.776,51
4624.776,50
4627.271000000001,52
4627.838,52
4627.838,52
4629.005,51
4631.231,51
4632.0160000000005,51
4632.0160000000005,51
4633.017,49
4635.141,49
4635.141,49
4636.138,50
4636.138,50
4637.137,50
4639.673,48
4640.19,48
4640.19,49
4640.19,47
4643.634,47
4644.389999999999,48
4645.44,50
4645.692999999999,50
4647.855,50
4648.367,50
4649.398999999999,49
4650.473,49
4651.5199999999995,49
4652.034,49
4652.034,49
4653.063999999999,49
4654.046,51
4655.892,50
4656.9130000000005,50
4656.9130000000005,50
4656.9130000000005,50
4660.082,47
4660.082,50
4661.099,50
4661.099,48
4664.174,50
4664.174,50
4665.095,50
4666.049,50
4668.127,50
4668.353,52
4668.353,52
4669.374000000001,51
4670.378000000001,51
4672.19,50
4672.19,49
4672.19,51
4673.606000000001,51
4676.139,51
4676.139,50
4677.137,50
4677.137,50
4680.409,48
4681.16,49
4681.16,47
4682.157,49
4684.218000000001,49
4684.724,51
4684.724,53
4684.724,53
4686.1050000000005,53
4689.122,52
4689.122,54
4689.122,52
4690.121,52
4693.120000000001,51
4693.415,51
4693.829,49
4694.143999999999,50
4696.652,49
4697.403,50
4697.403,49
4698.461,50
4699.4,50
4701.115,49
4701.634999999999,49
4702.151,48
4702.662,49
4705.171,49
4705.171,51
4705.171,51
4707.028,53
4708.742,51
4709.764,52
4709.764,52
4710.766,51
4713.444,50
4713.911,50
4713.911,51
4715.232999999999,49
4715.232999999999,49
4717.244,50
4717.244,51
4717.244,50
4717.244,50
4720.741,50
4721.74,48
4721.74,47
4721.74,49
4725.2660000000005,50
4726.0289999999995,52
4726.0289999999995,51
4727.017,51
4729.402,51
4729.402,53
4730.416,51
4730.416,51
4730.416,51
4733.916,50
4734.117,50
4734.117,50
4735.14,51
4737.942,50
4738.4529999999995,49
4738.4529999999995,50
4738.4529999999995,50
4741.755999999999,51
4742.511,51
4742.511,51
4743.567,52
4745.505999999999,51
4746.51,51
4746.51,52
4747.566,52
4748.717,52
4750.732,51
4750.732,51
4751.755,51
4752.269,51
4754.042,51
4754.042,51
4755.319,51
4755.319,50
4758.414,50
4759.267000000001,50
4759.267000000001,49
4760.271000000001,50
4760.271000000001,49
4762.6410000000005,50
4763.156999999999,50
4764.303,50
4764.303,52
4766.759999999999,52
4767.785,52
4767.785,51
4768.775,53
4770.120000000001,53
4771.143999999999,51
4771.143999999999,52
4772.139,52
4774.804999999999,50
4775.239,50
4775.894,49
4776.972,49
4776.972,49
4778.919,50
4778.919,49
4780.242,50
4780.242,50
4782.548000000001,49
4783.566000000001,50
4784.563999999999,52
4784.563999999999,52
4786.767,52
4787.276000000001,52
4787.276000000001,51
4788.327,51
4790.447999999999,51
4791.447,51
4792.5019999999995,51
4792.871,51
4792.871,51
4795.788,51
4795.788,50
4796.813,50
4796.813,50
4798.919,49
4801.034,48
4801.034,48
4802.165999999999,47
4803.616,47
4803.616,49
4804.63,51
4804.63,53
4807.478,54
4807.478,54
4808.662,54
4808.662,54
4809.68,52
4812.019,52
4812.019,52
4813.044,52
4813.044,50
4815.807000000001,50
4816.830000000001,49
4817.832,49
4817.832,51
4818.955,51
4819.999,51
4820.561,50
4821.6359999999995,48
4821.6359999999995,50
4824.28,50
4824.28,50
4824.28,52
4825.657999999999,52
4828.0380000000005,50
4828.0380000000005,51
4829.062000000001,51
4829.561,53
4832.188,53
4834.172,55
4835.1759999999995,54
4836.232,55
4837.302000000001,56
4838.247,56
4838.247,58
4839.246,60
4839.246,59
4840.55,59
4840.55,59
4841.573,61
4841.573,61
4844.515,63
4844.515,63
4845.5019999999995,66
4845.5019999999995,68
4848.322999999999,74
4850.348,76
4850.348,80
4851.394,94
4851.394,108
4852.697,117
4852.697,124
4853.758,124
4856.7390000000005,125
4856.7390000000005,131
4857.985000000001,146
4858.706,157
4860.474,158
4861.252,160
4861.252,159
4862.304,159
4865.2480000000005,157
4865.2480000000005,160
4866.349999999999,166
4867.377,169
4868.37,169
4869.366,164
4869.366,163
4870.7029999999995,164
4872.518999999999,164
4873.6050000000005,163
4873.6050000000005,163
4874.863,159
4877.311,162
4877.759,172
4878.839,178
4878.839,182
4881.3060000000005,179
4882.304,181
4883.315,185
4883.315,191
4884.736,190
4885.747,202
4886.8,215
4886.8,221
4889.239,220
4889.746999999999,220
4890.763,230
4890.763,229
4893.331,227
4893.896,228
4893.896,236
4895.307,254
4897.77,278
4898.322,290
4899.349,287
4900.353,285
4901.351,284
4902.352,284
4902.352,278
4905.566000000001,275
4905.566000000001,271
4906.834,265
4906.834,260
4909.188999999999,258
4910.7609999999995,257
4910.7609999999995,262
4911.946999999999,286
4914.309,313
4914.309,329
4915.378,332
4916.463000000001,356
4917.55,388
4918.654,405
4918.654,405
4919.723,396
4921.891,394
4923.013,391
4923.15,402
4924.352,421
4925.659,432
4926.831,428
4927.911,420
4928.062,416
4930.5560000000005,409
4930.5560000000005,410
4931.618,411
4932.64,409
4933.789,405
4934.874,401
4936.027,396
4936.027,392
4938.5289999999995,387
4939.056,380
4940.069,373
4940.069,371
4942.494,379
4943.568,394
4944.077,403
4944.077,407
4946.565,403
4947.076,395
4948.106,394
4948.106,398
4950.85,403
4950.85,409
4952.196,413
4952.196,411
4954.823,403
4955.549,400
4956.464999999999,400
4957.080999999999,393
4959.1669999999995,385
4960.415,377
4960.415,372
4961.432000000001,372
4963.429,374
4963.429,374
4964.4349999999995,379
4965.429,384
4966.5960000000005,385
4967.611,385
4968.68,381
4970.626,385
4970.626,391
4972.071,390
4973.137000000001,388
4975.052,384
4976.067,378
4976.067,379
4977.375999999999,377
4979.528,370
4980.557,375
4980.557,391
4981.4800000000005,393
4983.511,385
4983.511,383
4984.514,393
4984.514,402
4987.236,404
4987.236,406
4989.004000000001,403
4989.004000000001,395
4991.920999999999,393
4991.920999999999,391
4993.282,390
4993.282,407
4995.8949999999995,425
4996.41,426
4996.41,423
4997.793,434
4999.378,452
5000.409000000001,468
5001.42,481
5001.42,494
5003.959,503
5003.959,504
5005.225,502
5005.225,495
5008.473,486
5008.473,477
5009.492,468
5009.492,460
5011.727,454
5013.039,446
5014.066,439
5014.066,431
5016.391,423
5017.409,416
5017.409,412
5018.715,410
5020.732,406
5020.732,402
5020.732,400
5022.199,398
5024.527,394
5024.527,386
5025.545,377
5025.545,368
5028.987,360
5029.613,354
5029.613,347
5031.265,339
5032.423,331
5033.444,326
5034.692,323
5036.727,319
5036.727,314
5037.7119999999995,307
5038.706,300
5041.005,293
5041.005,294
5042.092000000001,311
5043.022,327
5045.071,326
5046.02,322
5046.417,331
5046.417,342
5048.7080000000005,348
5049.957,347
5049.957,343
5050.974,339
5053.281,333
5053.281,326
5054.299,320
5055.348999999999,315
5056.927,309
5057.929999999999,302
5057.929999999999,298
5058.924,297
5061.192,290
5062.131,288
5062.131,289
5063.183999999999,297
5065.943,304
5066.965,302
5066.965,306
5067.958,308
5069.515,305
5069.515,301
5070.77,302
5071.344,303
5073.771,301
5074.845,297
5074.845,295
5075.979,288
5077.75,284
5078.508,278
5079.5560000000005,275
5079.5560000000005,270
5082.508,266
5083.503000000001,261
5083.503000000001,258
5084.501,256
5085.503,254
5086.499,252
5087.505,247
5087.505,244
5090.500999999999,239
5091.5,236
5091.878000000001,233
5092.898,231
5094.4130000000005,229
5095.487999999999,225
5095.487999999999,219
5097.661,216
5098.434,212
5099.428,210
5100.888,209
5101.397000000001,207
5102.792,202
5102.792,200
5103.871,198
5105.898,194
5106.922,192
5107.965,189
5107.965,184
5110.826999999999,180
5110.826999999999,178
5112.144,175
5112.144,174
5114.706,171
5115.214,166
5116.228999999999,164
5117.227,164
5118.31,162
5119.328,161
5119.328,161
5120.323,157
5122.649,154
5123.584,154
5123.584,154
5124.575,151
5126.957,150
5127.547,148
5128.567999999999,148
5128.567999999999,151
5130.89,160
5131.401000000001,162
5132.479,161
5132.479,164
5134.977,172
5136.047,188
5136.047,204
5136.991,211
5139.222,209
5139.989,211
5141.035,212
5141.035,207
5143.243,207
5143.975,203
5145.0,203
5145.0,202
5147.507,205
5148.437999999999,207
5148.437999999999,206
5149.855,204
5151.125999999999,200
5152.144,195
5153.143,192
5154.1410000000005,188
5155.143,184
5156.197999999999,182
5157.2519999999995,179
5157.2519999999995,175
5160.081,174
5160.081,173
5161.102,174
5163.312,174
5164.094999999999,171
5165.098999999999,174
5165.098999999999,175
5167.731,183
5167.731,188
5168.958,186
5169.613,189
5171.985000000001,202
5172.5019999999995,211
5173.513,212
5173.513,222
5175.731,231
5176.7919999999995,234
5177.805,232
5177.805,228
5180.1810000000005,227
5180.1810000000005,223
5181.196,219
5182.23,215
5183.607,209
5184.72,208
5184.72,207
5185.946000000001,206
5188.44,203
5189.026,197
5189.026,193
5190.1669999999995,190
5192.554,186
5193.457,183
5193.457,181
5194.4169999999995,177
5196.405000000001,173
5197.465,169
5197.465,174
5198.403,177
5201.04,176
5201.04,171
5202.06,169
5202.06,172
5204.5779999999995,171
5205.142000000001,170
5205.142000000001,167
5206.57,163
5209.217,168
5209.217,170
5210.282,168
5211.009,167
5213.309,171
5213.309,173
5214.328,172
5215.332,170
5216.853,170
5216.853,169
5217.9169999999995,166
5218.877,162
5220.875999999999,160
5222.545,168
5223.067999999999,180
5225.111,185
5225.111,185
5226.111000000001,195
5226.111000000001,203
5229.581999999999,202
5229.581999999999,202
5230.64,205
5231.864,205
5233.173,201
5234.206999999999,198
5234.206999999999,195
5235.185,194
5237.433,193
5237.946,189
5237.946,185
5239.02,183
5241.492,180
5242.266,178
5242.266,177
5243.6449999999995,174
5245.767,173
5245.767,173
5246.983,172
5248.033,170
5249.728,167
5250.743,161
5250.743,159
5251.750999999999,156
5253.741,155
5253.741,153
5254.876,151
5255.889,148
5258.122,149
5258.852,150
5259.875,150
5259.875,149
5262.285999999999,145
5262.813999999999,143
5263.947,141
5263.947,142
5266.261,142
5266.261,145
5267.258,143
5268.306,139
5269.96,137
5270.889,136
5270.889,134
5271.947,135
5274.94,131
5274.94,129
5275.884,126
5276.943,124
5278.295,123
5279.3060000000005,123
5280.318,120
5280.318,117
5282.308999999999,116
5283.311000000001,120
5284.307,126
5285.312,131
5286.996,131
5287.414,133
5288.491,132
5290.768,131
5291.506,136
5291.506,147
5292.775,169
5294.44,187
5295.454000000001,190
5296.4529999999995,194
5296.4529999999995,206
5298.701999999999,217
5299.464999999999,221
5300.461,222
5301.463,222
5302.458,219
5303.458,224
5304.025000000001,225
5304.535,225
5307.25,226
5308.331,224
5308.331,222
5309.41,220
5311.472,217
5311.472,211
5312.544,208
5313.491,204
5315.547,200
5316.7609999999995,198
5316.7609999999995,195
5317.775000000001,191
5318.8009999999995,188
5320.049,186
5320.049,183
5321.113,182
5323.7480000000005,181
5324.762,175
5324.762,174
5325.766,175
5327.839,174
5328.475,172
5328.475,169
5329.623,164
5331.458,161
5332.483,158
5333.476,156
5333.476,154
5335.753000000001,151
5335.753000000001,147
5337.435,145
5337.435,142
5340.536,142
5341.557,141
5341.557,141
5342.552000000001,137
5343.553,137
5344.595,134
5344.595,134
5345.703,133
5348.683,130
5349.701999999999,127
5349.701999999999,125
5351.998,125
5352.531,124
5352.531,122
5353.6089999999995,120
5355.68,117
5356.851,116
5356.851,116
5358.086,119
5360.013,123
5361.033,121
5362.081,123
5362.081,132
5364.095,138
5365.05,138
5366.031000000001,137
5367.0289999999995,133
5368.326,132
5368.846,128
5369.916,128
5370.8640000000005,130
5372.9259999999995,129
5372.9259999999995,125
5373.92,123
5374.863,121
5376.9130000000005,120
5376.9130000000005,118
5377.922,117
5378.863,113
5380.918000000001,112
5381.4349999999995,109
5382.6359999999995,110
5382.6359999999995,112
5384.898999999999,115
5384.898999999999,119
5385.894,120
5385.894,119
5389.035,118
5389.65,116
5389.65,115
5390.837,112
5392.8640000000005,110
5393.869,116
5394.861,126
5394.861,134
5397.322,133
5398.3369999999995,131
5398.3369999999995,134
5399.431,136
5401.554,134
5401.554,133
5402.578,131
5403.572999999999,128
5405.57,126
5405.57,125
5406.739,122
5407.269,123
5410.109,123
5410.109,125
5411.123,128
5411.123,126
5413.972000000001,126
5413.972000000001,128
5415.478,129
5416.494000000001,129
5417.920999999999,129
5418.942999999999,127
5418.942999999999,126
5421.738,125
5421.738,125
5422.752,124
5423.79,124
5426.016,124
5426.016,122
5427.682,123
5427.939,120
5429.866,117
5430.403,118
5430.403,118
5431.648,115
5433.97,114
5433.97,111
5435.241999999999,111
5435.241999999999,109
5438.322999999999,110
5439.318,108
5439.318,107
5440.262,104
5442.4619999999995,102
5443.2609999999995,102
5443.2609999999995,103
5444.29,103
5446.432,103
5446.432,101
5447.692,101
5448.52,101
5449.936,100
5450.948,100
5451.965999999999,99
5451.965999999999,99
5454.035,98
5455.66,98
5455.66,96
5456.68,96
5458.804,96
5459.674,95
5459.674,93
5460.670999999999,95
5460.670999999999,98
5462.749,97
5463.814,99
5463.814,102
5464.766,104
5466.951,101
5467.909,101
5467.909,100
5469.089,100
5471.088,99
5472.162,98
5472.162,96
5473.106,96
5475.150000000001,93
5475.150000000001,92
5476.161,90
5477.158,89
5479.163,89
5479.163,89
5480.159,87
5481.1050000000005,85
5483.103,84
5483.103,88
5484.106,91
5485.153,91
5485.153,92
5487.213,90
5487.213,88
5488.41,89
5489.102,88
5491.276,86
5491.791,87
5492.809,87
5492.809,87
5495.804,85
5495.804,84
5496.88,84
5496.88,82
5498.234,83
5499.281,83
5500.633,81
5501.145,84
5501.145,86
5503.596,87
5504.113,87
5505.125,83
5505.125,84
5507.975,83
5508.603,82
5509.627,81
5509.7699999999995,79
5510.852,79
5512.0199999999995,79
5512.798,80
5513.799,80
5513.799,81
5515.796,82
5516.918000000001,84
5517.941000000001,82
5518.45,83
5519.853999999999,81
5520.42,78
5521.442,79
5522.48,81
5524.067,82
5524.067,83
5525.118,80
5526.119,80
5526.119,80
5528.316,83
5529.072,83
5529.072,81
5530.482,79
5532.037,79
5533.071,84
5534.207,87
5534.207,88
5536.432,87
5536.432,90
5536.432,92
5537.935,93
5539.952,92
5540.956,90
5541.947999999999,89
5541.947999999999,89
5543.318,90
5544.5869999999995,91
5544.5869999999995,92
5546.387000000001,92
5546.387000000001,92
5548.68,90
5549.41,89
5550.404,89
5550.404,88
5552.92,87
5552.92,85
5554.22,84
5554.22,85
5554.22,81
5557.099,80
5557.92,79
5558.944,81
5558.944,82
5561.3060000000005,82
5561.834,83
5561.834,87
5563.0509999999995,88
5565.312,89
5566.2570000000005,92
5566.2570000000005,94
5567.250999999999,96
5568.527999999999,95
5569.539,95
5569.539,95
5570.633,99
5570.633,101
5573.389999999999,104
5573.954,105
5573.954,106
5575.334,106
5577.39,103
5578.46,102
5578.844,99
5579.349999999999,97
5582.155000000001,99
5583.174,101
5583.174,99
5584.6140000000005,98
5585.626,99
5586.197,101
5586.197,103
5587.689,103
5590.007,101
5590.007,100
5591.456,102
5592.472,107
5593.476,112
5594.473,116
5595.469999999999,118
5595.469999999999,118
5597.534,121
5598.549,119
5599.65,115
5600.664,115
5601.701,116
5602.716,118
5603.214,123
5603.872,125
5605.726,123
5606.79,121
5607.811,119
5608.854,120
5610.151,118
5610.749,117
5611.765,113
5613.981,111
5614.769,109
5615.766,110
5615.766,107
5617.235,106
5618.739,107
5618.739,109
5619.751,108
5622.563,108
5622.563,107
5624.112,107
5624.112,107
5626.5419999999995,111
5627.161,113
5628.25,112
5628.396000000001,112
5630.473,111
5631.422,107
5632.474,106
5632.474,104
5634.912,103
5634.912,102
5636.063,107
5636.063,109
5639.092,110
5639.092,114
5640.08,118
5641.077,116
5642.968,117
5642.968,123
5644.040999999999,130
5644.985000000001,132
5647.1939999999995,130
5647.963,130
5648.9890000000005,135
5649.987,138
5651.3910000000005,137
5651.906999999999,136
5651.906999999999,138
5652.973,144
5654.921,149
5655.968,149
5656.92,148
5656.92,147
5659.244000000001,144
5660.201,143
5660.201,139
5661.193,137
5663.245,136
5664.2029999999995,138
5664.2029999999995,142
5665.198,143
5667.191,142
5668.244,139
5669.199,138
5670.518,135
5671.901,134
5671.901,133
5672.925,129
5674.977,126
5675.924,124
5676.9259999999995,122
5676.9259999999995,122
5678.969999999999,121
5679.92,119
5680.926,116
5680.926,116
5682.915,118
5684.342,118
5685.038,115
5686.051,111
5687.1900000000005,109
5688.205,109
5688.205,111
5689.261,111
5691.693,110
5693.240000000001,107
5693.240000000001,105
5694.38,104
5696.549,102
5696.549,103
5697.618,99
5697.618,99
5699.768,99
5700.859,99
5700.859,100
5701.8769999999995,101
5704.086,99
5704.086,99
5705.273,99
5705.273,97
5706.344,98
5709.0779999999995,98
5709.0779999999995,100
5710.143999999999,97
5710.143999999999,96
5712.568,96
5712.568,98
5714.152999999999,99
5714.152999999999,97
5716.464,96
5717.477,95
5717.477,94
5718.49,93
5720.565,93
5720.565,92
5722.0,91
5722.0,90
5723.012,91
5725.226000000001,94
5725.226000000001,94
5726.247,96
5727.24,96
5729.266,93
5729.715999999999,92
5730.798,90
5730.964,91
5733.176,91
5734.184,97
5734.184,99
5735.176,102
5737.171,99
5737.504000000001,99
5737.504000000001,99
5738.559,98
5738.559,96
5741.39,94
5741.39,94
5742.650000000001,96
5742.851,96
5745.015,95
5746.067,93
5747.013,92
5747.013,93
5749.012,91
5750.008,91
5751.086,91
5751.602,91
5753.6050000000005,91
5753.6050000000005,90
5754.625,88
5755.134,86
5755.134,87
5757.809,85
5758.642,83
5759.665,84
5759.799,84
5761.917,87
5762.826999999999,87
5763.824,83
5763.824,84
5765.825000000001,84
5765.825000000001,87
5767.152,91
5767.152,91
5768.170999999999,91
5770.254000000001,90
5770.254000000001,87
5771.267,89
5771.267,90
5774.278,95
5774.278,97
5775.701,98
5776.075,96
5778.1630000000005,94
5778.718,93
5778.718,92
5779.861000000001,89
5782.105,88
5783.151,88
5783.151,86
5784.474999999999,90
5784.474999999999,90
5785.499,90
5786.893,88
5787.403,90
5787.403,88
5790.326999999999,88
5790.838,87
5791.858,88
5791.858,88
5794.86,92
5794.86,96
5795.853,100
5796.908,100
5798.6849999999995,100
5800.156,101
5800.156,103
5801.661,99
5802.4529999999995,99
5803.1990000000005,99
5803.1990000000005,99
5804.210999999999,99
5805.269,98
5807.2210000000005,98
5807.2210000000005,100
5808.2789999999995,102
5808.2789999999995,103
5811.179,103
5811.179,100
5812.195,100
5813.186,102
5815.162,107
5816.139999999999,110
5817.135,111
5819.171,107
5819.171,106
5820.567,106
5820.799,106
5822.474,106
5823.494000000001,105
5824.555,104
5825.4929999999995,102
5827.489,101
5828.490000000001,100
5828.490000000001,98
5829.648999999999,98
5829.648999999999,98
5831.678,96
5831.678,95
5833.044,95
5834.059,97
5835.344,101
5835.344,101
5837.054,101
5837.567,102
5840.251,103
5840.251,101
5841.266,99
5841.637000000001,99
5843.956,99
5844.486,101
5844.486,99
5845.72,99
5847.949,99
5848.946,98
5848.946,96
5849.9439999999995,94
5850.947,93
5852.106,92
5852.106,88
5853.434,88
5853.434,87
5856.102,87
5856.665,85
5857.678,84
5857.678,84
5860.199,86
5860.775000000001,85
5860.775000000001,86
5862.058,89
5864.4439999999995,87
5864.966,87
5866.014,89
5866.014,88
5868.087,85
5868.087,84
5869.1230000000005,84
5869.1230000000005,84
5870.157,83
5872.16,80
5873.116,79
5874.11,79
5874.11,77
5876.291,75
5877.108,75
5877.108,75
5878.111,75
5880.362,73
5881.11,72
5882.102,72
5882.102,72
5883.3859999999995,73
5883.904,73
5884.929999999999,72
5885.927,71
5885.927,74
5888.826,71
5889.6050000000005,71
5889.6050000000005,69
5890.623,69
5892.728,69
5893.245,69
5894.257,67
5894.257,67
5897.257,66
5897.257,66
5897.257,64
5898.698,66
5899.857,66
5900.878,68
5901.879,67
5901.879,67
5902.879000000001,69
5905.476000000001,69
5905.476000000001,67
5906.5380000000005,66
5907.048,66
5909.517,66
5909.894,63
5910.977,62
5910.977,61
5913.535000000001,60
5914.054,61
5914.054,59
5915.127,61
5916.069,61
5917.075,59
5917.075,60
5918.822999999999,59
5918.822999999999,62
5921.334,61
5921.903,64
5922.976000000001,68
5922.976000000001,66
5925.92,65
5926.288,65
5927.088000000001,67
5927.088000000001,67
5928.18,66
5929.512,64
5930.534,66
5930.534,66
5931.533,68
5933.719,66
5933.719,65
5935.083,67
5935.083,65
5938.324,65
5938.324,65
5939.322,66
5939.322,65
5941.887000000001,66
5942.400000000001,68
5942.400000000001,70
5943.907,70
5943.907,69
5946.21,69
5946.773999999999,69
5946.773999999999,67
5948.115,66
5950.315,66
5950.315,66
5951.442,65
5952.448,64
5954.0199999999995,64
5954.4839999999995,64
5955.496,64
5955.496,63
5958.633,63
5958.633,64
5959.902999999999,63
5959.902999999999,63
5961.247,64
5962.469999999999,66
5962.469999999999,64
5963.939,64
5963.939,64
5966.293000000001,64
5967.31,64
5968.363,64
5968.363,64
5970.5779999999995,63
5970.5779999999995,63
5971.606000000001,64
5972.203,63
5974.472,63
5975.227,63
5975.227,64
5976.686,64
5976.686,64
5978.93,64
5979.945,65
5979.945,65
5981.062,65
5982.303,65
5983.3369999999995,67
5984.361,67
5985.351,67
5986.537,67
5987.555,66
5987.555,66
5988.553,66
5991.262,64
5991.262,64
5992.298,61
5993.344999999999,63
5993.344999999999,64
5995.425,63
5995.425,63
5997.09,63
5997.09,63
5999.215,63
6000.425,62
6000.425,60
6001.775000000001,60
6002.86,62
6003.7880000000005,64
6003.7880000000005,65
6004.843,64
6004.843,65
6008.045,65
6008.3679999999995,65
6009.391,63
6009.677,63
6011.776,65
6012.346,65
6012.346,65
6013.631,64
6014.803,63
6015.985,62
6017.04,62
6017.04,61
6019.786,64
6019.786,64
6020.728,64
6020.728,63
6021.782,63
6023.768999999999,63
6024.736,63
6024.736,63
6025.7880000000005,62
6028.161,62
6028.772,62
6028.772,60
6029.929,60
6031.708,60
6031.708,60
6033.13,60
6033.13,61
6036.156,61
6036.156,61
6037.155000000001,63
6038.165,63
6038.165,63
6040.166,62
6040.166,62
6041.1630000000005,62
6042.1630000000005,60
6044.157,60
6045.156000000001,58
6045.156000000001,58
6046.162,57
6049.032,59
6049.032,63
6050.131,65
6051.361,70
6052.623,73
6053.107,74
6053.107,74
6054.373,74
6054.373,73
6056.735,73
6057.252,74
6058.264999999999,72
6058.264999999999,73
6060.487,72
6060.487,77
6061.835,79
6062.344999999999,80
6064.63,79
6065.652,79
6065.652,80
6066.8009999999995,79
6067.816,79
6068.857999999999,79
6069.322,77
6070.339,75
6070.339,74
6073.162,75
6073.702,75
6074.789,75
6074.789,73
6076.955,72
6077.734,71
6077.734,72
6078.805,74
6079.785,75
6081.793000000001,76
6082.732,76
6083.8679999999995,76
6083.8679999999995,75
6084.884,75
6085.9,73
6085.9,74
6087.594,74
6089.527999999999,75
6089.527999999999,73
6090.962,73
6091.924,71
6093.6539999999995,71
6094.1539999999995,71
6094.739,69
6095.807,71
6095.807,71
6098.007,69
6098.007,69
6099.427000000001,67
6100.450000000001,69
6101.445,67
6102.463,67
6102.463,67
6103.448,66
6105.647,66
6106.449,66
6106.449,65
6107.739,65
6109.504,64
6110.519,64
6111.306,64
6111.779,65
6112.624000000001,65
6114.512000000001,63
6114.512000000001,62
6115.951,62
6115.951,62
6117.19,62
6118.532,61
6118.532,60
6119.553,60
6121.975,59
6121.975,61
6123.242,63
6123.242,63
6124.324,63
6126.261,62
6127.2609999999995,62
6127.2609999999995,62
6128.282999999999,60
6130.525,60
6131.309,60
6132.3369999999995,60
6132.3369999999995,59
6134.341,59
6135.339,59
6135.339,59
6136.337,59
6138.474999999999,59
6138.985,58
6138.985,58
6140.06,58
6140.06,57
6142.763000000001,57
6143.327,60
6143.327,64
6144.686,64
6146.945,65
6147.941000000001,65
6147.941000000001,67
6148.88,69
6150.746,67
6150.746,67
6152.043,69
6152.34,71
6155.079,78
6155.079,81
6156.156,84
6157.0960000000005,85
6157.0960000000005,85
6159.186,83
6159.754999999999,83
6159.754999999999,82
6161.101000000001,83
6162.901,81
6163.924,84
6163.924,84
6164.944,83
6166.92,83
6166.92,83
6168.385,84
6168.953,82
6170.125,82
6170.918000000001,81
6171.9400000000005,81
6173.001,84
6173.001,86
6174.945,87
6176.005,89
6176.9400000000005,85
6176.9400000000005,88
6179.4929999999995,90
6179.4929999999995,88
6180.565,88
6181.509,89
6183.506,88
6183.506,88
6184.718,90
6184.718,88
6185.898,88
6187.748,87
6188.222,85
6189.3060000000005,84
6189.3060000000005,83
6192.2480000000005,82
6192.2480000000005,83
6193.244,81
6193.244,81
6196.25,84
6196.25,83
6197.244000000001,83
6197.244000000001,80
6198.299999999999,79
6199.246999999999,78
6200.561000000001,77
6200.561000000001,77
6201.689,79
6203.775000000001,81
6204.707,78
6204.707,78
6205.725,78
6208.566,80
6209.005,79
6209.005,76
6210.238,76
6210.238,75
6212.512000000001,75
6213.3640000000005,75
6214.362999999999,73
6214.362999999999,73
6216.556,72
6217.642,73
6218.162,72
6218.162,69
6220.228999999999,69
6220.228999999999,72
6221.755,72
6221.755,73
6224.281999999999,75
6225.129,73
6226.071,73
6226.071,72
6227.155,74
6229.187,75
6229.187,72
6230.203,72
6230.776,72
6232.974999999999,71
6232.974999999999,71
6233.977000000001,69
6234.971,71
6236.809,71
6237.232,71
6238.306,69
6238.306,67
6241.235,66
6241.235,68
6242.165,68
6243.165,68
6243.165,69
6245.259,69
6245.777,69
6246.794000000001,69
6246.794000000001,69
6248.447999999999,69
6249.864,69
6249.864,69
6251.245,67
6252.788,66
6253.789000000001,66
6254.597000000001,66
6254.597000000001,66
6255.619000000001,68
6257.6179999999995,68
6257.6179999999995,68
6258.618,67
6259.242,67
6261.69,67
6261.69,69
6263.135,67
6263.723,70
6265.862,70
6265.9349999999995,70
6266.953,70
6266.953,70
6269.5470000000005,67
6269.5470000000005,67
6270.660999999999,67
6270.660999999999,66
6271.732,66
6274.072,66
6274.072,63
6275.157,62
6275.157,61
6277.657999999999,61
6278.787,60
6278.787,60
6279.912,60
6282.253,59
6283.37,59
6283.37,59
6284.466,61
6285.581999999999,59
6286.731,59
6286.731,59
6287.866,59
6287.866,58
6290.371,57
6290.371,57
6291.515,56
6292.583,56
6294.016,56
6295.221,57
6295.221,57
6296.242,57
6298.476,57
6299.837,56
6299.837,55
6300.9310000000005,56
6302.1089999999995,56
6303.12,56
6303.12,57
6304.364,58
6304.364,59
6306.177,57
6307.201,57
6307.201,59
6308.451,59
6310.135,59
6311.209,58
6312.152,58
6312.152,58
6314.8460000000005,58
6315.87,56
6315.87,56
6317.259,55
6318.471,55
6318.471,55
6319.986,54
6320.179,55
6321.2080000000005,57
6322.208,59
6323.68,59
6324.19,58
6324.19,58
6326.687,58
6327.7,56
6328.756,56
6328.756,55
6330.838,54
6331.857,53
6331.857,53
6333.1759999999995,53
6334.205,53
6335.193,55
6336.192,55
6337.055,55
6337.2789999999995,54
6339.402,52
6340.432,52
6340.432,52
6341.43,52
6343.494,52
6343.494,54
6344.566000000001,55
6345.514999999999,55
6347.644,55
6348.569,56
6349.522999999999,56
6349.522999999999,57
6350.718,57
6350.718,57
6352.215,56
6352.215,55
6353.237,56
6355.438,54
6356.242,54
6356.242,53
6357.279,53
6360.066,53
6360.630999999999,53
6360.630999999999,54
6361.775,56
6363.96,57
6364.958,58
6364.958,58
6366.053,58
6367.066000000001,58
6367.066000000001,58
6368.406,56
6368.406,56
6369.525000000001,56
6371.942,56
6372.722000000001,57
6373.721,57
6373.721,57
6376.317,57
6376.317,57
6377.527,58
6378.258,57
6380.343,55
6380.6849999999995,55
6381.77,58
6381.77,58
6382.7119999999995,57
6383.713,57
6385.01,57
6385.01,58
6386.443,59
6388.186,63
6388.186,63
6390.139999999999,63
6390.139999999999,63
6392.58,67
6392.58,68
6393.9310000000005,67
6393.9310000000005,68
6395.269,68
6396.658,67
6397.374,65
6398.393999999999,65
6398.393999999999,64
6400.629,65
6401.639,65
6401.639,67
6402.652,67
6404.731,67
6404.731,67
6405.804,66
6406.747,66
6408.97,66
6409.744,64
6409.744,64
6411.076999999999,64
6411.076999999999,61
6413.327,61
6413.966,61
6413.966,61
6415.121,61
6417.306,63
6417.306,61
6418.3060000000005,61
6419.3,62
6421.267,62
6422.298,62
6422.298,62
6423.533,60
6425.565,61
6425.565,60
6426.651,60
6426.651,61
6427.718,61
6429.667,59
6430.666,61
6430.666,61
6431.759999999999,59
6433.2,61
6434.643999999999,60
6434.643999999999,59
6435.656,58
6437.509999999999,58
6437.509999999999,57
6438.5960000000005,56
6439.171,56
6441.917,56
6441.917,57
6443.2029999999995,57
6443.2029999999995,59
6444.214,59
6446.28,59
6446.28,59
6447.237,58
6448.273,58
6449.217,58
6450.484,58
6451.582,56
6452.0960000000005,56
6453.113,56
6454.359,57
6454.359,56
6455.374,56
6458.15,56
6458.529,56
6459.551,55
6459.551,55
6460.57,54
6462.285,54
6462.285,54
6463.604,52
6463.604,52
6465.9839999999995,52
6467.0019999999995,53
6467.0019999999995,53
6468.425,51
6470.44,51
6470.44,53
6471.650000000001,55
6472.171,54
6472.171,54
6474.518,54
6475.539000000001,54
6475.539000000001,52
6476.864,52
6478.664,50
6479.439,52
6480.463000000001,50
6480.463000000001,51
6482.581999999999,51
6482.581999999999,53
6483.977000000001,55
6483.977000000001,55
6486.513000000001,55
6487.023,54
6487.023,54
6488.094,54
6489.09,53
6491.096,53
6492.098,52
6492.098,52
6493.042,52
6495.040999999999,51
6495.040999999999,53
6496.107,53
6497.042,53
6499.1269999999995,54
6499.1269999999995,54
6500.122,54
6501.124,54
6503.130999999999,52
6503.130999999999,54
6504.120000000001,56
6504.120000000001,56
6505.125,56
6507.125,56
6508.133,56
6508.133,56
6509.124,57
6511.1230000000005,55
6512.128,55
6513.532999999999,55
6514.048,54
6515.265,54
6516.518999999999,54
6516.518999999999,53
6517.534000000001,52
6519.531,52
6519.531,53
6520.655,53
6520.655,55
6520.655,57
6523.624,59
6523.624,59
6525.0779999999995,59
6525.0779999999995,58
6527.504000000001,56
6528.713,58
6528.713,56
6529.726000000001,56
6532.367,56
6533.364,55
6533.364,55
6534.361,55
6535.843,55
6535.843,55
6536.761,55
6537.355,55
6537.355,54
6540.094,54
6540.7390000000005,54
6541.822,54
6541.822,56
6543.766,56
6544.762000000001,57
6544.762000000001,57
6546.011,59
6548.652,59
6549.655,61
6550.658,61
6550.658,59
6551.650000000001,61
6551.650000000001,63
6552.653,68
6553.650000000001,71
6553.650000000001,71
6556.062,73
6557.085,71
6558.076,69
6558.076,70
6560.635,72
6561.201999999999,75
6561.201999999999,78
6562.356000000001,78
6564.133,78
6565.156,78
6566.147,77
6567.332,75
6567.332,73
6568.708,72
6568.708,74
6569.727000000001,73
6570.722,69
6572.7,71
6573.716,71
6573.716,71
6575.125,69
6576.579,69
6577.597,68
6577.597,67
6578.591,70
6578.591,70
6581.199,74
6581.763,75
6581.763,73
6583.215,76
6585.286,78
6585.545,78
6586.45,75
6586.45,75
6588.952,76
6589.845,78
6589.845,81
6590.838,81
6593.226,80
6593.226,80
6594.298,79
6595.241,80
6595.241,79
6597.512,76
6598.023,76
6599.0419999999995,76
6600.0779999999995,75
6601.476,75
6602.116,75
6602.116,76
6603.246,78
6605.9130000000005,79
6606.185,77
6607.027999999999,77
6607.027999999999,78
6607.027999999999,78
6609.901,77
6609.901,75
6610.973999999999,75
6611.917,76
6613.831,78
6614.845,79
6614.845,77
6616.068,76
6617.082,76
6618.087,76
6619.088,79
6619.088,77
6620.082,78
6621.165999999999,78
6622.179,80
6623.191000000001,79
6623.191000000001,75
6625.242,76
6626.556,76
6626.556,75
6627.7,75
6630.036999999999,73
6630.55,72
6631.635,71
6631.635,71
6633.576,72
6634.585,68
6634.585,67
6636.069,67
6636.069,67
6638.301,67
6638.301,67
6639.4710000000005,67
6639.4710000000005,66
6642.0070000000005,66
6643.172,66
6644.182,68
6644.3,68
6646.728999999999,69
6646.728999999999,68
6647.842,69
6648.914000000001,67
6649.999,68
6651.179,67
6651.179,69
6652.195,71
6652.195,65
6654.822,67
6655.927000000001,67
6655.927000000001,67
6657.163,66
6658.263,65
6659.54,66
6659.54,66
6660.607,66
6663.117,68
6663.117,68
6664.269,68
6664.269,69
6666.504,69
6667.518,67
6668.583,67
6669.706,67
6670.725,69
6671.726,69
6672.823,68
6672.823,68
6673.851,66
6674.838000000001,66
6675.856,64
6676.871,64
6676.871,64
6679.013999999999,64
6679.013999999999,61
6680.026,63
6680.5070000000005,64
6681.174,64
6683.195000000001,65
6683.195000000001,65
6684.239,65
6685.196999999999,65
6687.6720000000005,62
6687.6720000000005,62
6687.6720000000005,62
6687.6720000000005,62
6691.645,61
6692.09,61
6693.117,61
6693.117,59
6695.131,59
6696.119000000001,59
6696.119000000001,59
6697.19,59
6698.204,59
6699.207,59
6700.205999999999,58
6701.202,58
6701.202,60
6703.842,60
6703.842,60
6703.842,61
6705.15,61
6708.214,59
6708.214,59
6709.493,59
6709.493,59
6711.528,59
6711.528,59
6712.791,59
6713.804999999999,59
6713.804999999999,59
6715.804999999999,59
6715.804999999999,58
6717.172,58
6717.728,57
6720.242,57
6720.242,57
6720.242,57
6721.532,57
6723.817999999999,57
6724.836,59
6724.836,59
6725.83,58
6728.177,58
6728.177,55
6729.591,55
6729.591,54
6729.591,54
6732.021,54
6733.034,54
6733.034,56
6734.036,56
6736.084,56
6737.032,56
6737.518,57
6738.149,61
6740.928,63
6741.23,63
6742.2570000000005,63
6742.2570000000005,66
6744.29,67
6744.29,68
6745.26,68
6745.26,68
6746.252,69
6748.669,74
6749.689,78
6749.689,80
6750.688,81
6752.195000000001,82
6753.204000000001,81
6753.204000000001,82
6754.3150000000005,81
6757.366,79
6757.768,77
6758.789,77
6759.087,78
6759.557,77
6761.25,75
6762.485,76
6762.485,76
6763.93,78
6765.361000000001,79
6766.379,75
6766.379,76
6767.379,75
6769.093,74
6769.093,75
6770.492,72
6770.492,71
6770.492,70
6773.445,71
6774.067999999999,69
6774.631,70
6775.139,69
6777.638,67
6778.263,67
6779.347,68
6779.347,66
6782.295,68
6783.292,68
6783.292,66
6784.474999999999,66
6784.474999999999,67
6785.9,67
6786.9130000000005,67
6786.9130000000005,69
6786.9130000000005,67
6789.883,69
6790.447,67
6791.464,68
6791.464,68
6793.701999999999,68
6794.467,65
6795.46,64
6795.46,64
6798.282999999999,64
6798.808,63
6799.823,63
6800.829000000001,63
6801.814,65
6802.352,65
6803.371,65
6804.375,64
6804.375,64
6806.38,66
6807.379,65
6807.379,64
6808.366999999999,64
6810.378,64
6810.378,64
6811.42,64
6812.368,63
6814.504999999999,63
6815.366,63
6816.366,63
6817.387,63
6818.412,63
6818.412,62
6819.406,62
6819.406,62
6820.646,64
6823.216,64
6823.216,65
6824.549,68
6824.549,69
6826.708,69
6827.2519999999995,69
6827.2519999999995,69
6828.502,69
6830.308,71
6831.334,71
6832.321999999999,74
6832.321999999999,75
6833.340999999999,73
6834.885,73
6834.885,74
6835.903,73
6836.902,72
6838.986,71
6839.585999999999,70
6840.607,71
6840.607,73
6842.847,73
6843.359,72
6844.381,71
6844.381,71
6846.879999999999,71
6847.901,69
6848.8949999999995,67
6848.8949999999995,69
6849.908,70
6850.894,69
6852.151,67
6852.151,68
6853.321,66
6854.784000000001,66
6856.079000000001,65
6856.617,64
6857.4400000000005,64
6859.769,65
6859.769,65
6860.762000000001,65
6861.821,67
6863.822,69
6863.822,69
6864.768,68
6865.763,66
6865.763,66
6867.919,66
6867.919,64
6868.937,63
6868.937,64
6871.934,64
6871.934,64
6873.498,63
6873.498,63
6876.111,63
6876.111,63
6877.143,63
6878.135,62
6878.135,62
6880.340999999999,63
6880.340999999999,64
6881.362,64
6882.364,64
6883.367,64
6884.794,64
6884.794,64
6886.177,64
6887.666,63
6888.6810000000005,63
6889.712,63
6889.712,63
6892.192,63
6892.661,63
6892.661,63
6893.920999999999,63
6893.920999999999,62
6896.528,61
6897.0380000000005,61
6898.058,61
6899.054999999999,61
6900.061,61
6901.053,62
6901.053,63
6902.405,65
6904.415,65
6904.415,65
6905.426,64
6905.974999999999,64
6908.756,62
6908.756,62
6909.986,61
6909.986,61
6911.228999999999,60
6913.343,60
6913.343,59
6913.343,57
6914.780000000001,58
6915.96,59
6917.118,57
6918.261,59
6918.261,58
6920.321000000001,58
6921.274,59
6921.274,58
6922.281,58
6924.446,59
6925.464,59
6926.518,60
6926.518,59
6926.518,58
6929.210999999999,57
6930.01,59
6931.034000000001,59
6931.1759999999995,57
6933.2,57
6934.265,57
6934.265,56
6935.2919999999995,56
6937.287,56
6937.287,56
6938.282,55
6938.282,54
6939.746,53
6941.428,54
6941.998,57
6943.015,59
6943.015,59
6945.2480000000005,62
6946.0160000000005,59
6947.009999999999,60
6947.222,58
6949.785999999999,58
6949.785999999999,58
6951.137,58
6951.137,60
6953.719,58
6953.719,57
6953.719,57
6955.088,57
6961.229,56
6962.364,57
6965.8189999999995,57
6966.835,57
6966.835,59
6967.938,59
6968.950000000001,58
6968.950000000001,60
6970.003000000001,60
6970.003000000001,60
6971.443,60
6971.443,60
6971.443,58
6972.517,57
6972.517,57
6973.530000000001,58
6973.530000000001,59
6973.530000000001,57
6974.534000000001,57
6974.534000000001,56
6975.531,56
6975.531,55
6977.576,54
6978.5289999999995,54
6978.5289999999995,53
6978.5289999999995,54
6981.530000000001,55
6982.931,55
6982.931,56
6982.931,57
6986.4980000000005,57
6986.4980000000005,57
6986.4980000000005,57
6987.777,57
6987.777,56
6990.375,55
6990.375,54
6991.39,54
6991.39,53
6994.045,53
6995.034000000001,53
6995.034000000001,53
6995.99,53
6998.443,53
6998.443,55
6999.891,55
7000.543000000001,54
7002.453,54
7002.453,54
7003.4890000000005,54
7003.4890000000005,56
7004.756,56
7007.282,55
7007.282,55
7008.322,55
7009.33,55
7011.276,55
7011.276,56
7012.3369999999995,56
7013.277999999999,55
7015.275,55
7015.275,54
7016.565,54
7017.617,54
7018.1269999999995,54
7019.121,54
7019.684,54
7020.762000000001,53
7020.762000000001,53
7023.709,51
7023.709,51
7024.718,51
7025.705999999999,53
7027.157,53
7028.179,51
7028.179,52
7029.224,51
7031.414,50
7032.19,50
7033.186,50
7033.701,50
7033.701,49
7035.777999999999,50
7036.226,49
7036.883000000001,50
7037.33,50
7039.5289999999995,52
7040.5470000000005,52
7040.5470000000005,56
7041.549,56
7043.268,55
7044.356,55
7045.321999999999,55
7045.321999999999,56
7047.866,56
7047.866,55
7049.048,55
7049.048,54
7050.064,55
7051.655000000001,54
7052.673000000001,54
7052.673000000001,54
7053.844,53
7055.937,52
7056.704,52
7057.279,51
7057.7880000000005,51
7060.076999999999,53
7332.146,55
7334.147,57
7335.153,59
7337.148,59
7339.443,60
7340.629,60
7341.657999999999,60
7342.731,60
7343.84,58
7344.888,57
7347.044000000001,57
7348.091,57
7350.451999999999,60
7352.462,63
7352.989,63
7354.515,63
7355.579,63
7357.253,62
7357.253,61
7359.401,60
7360.636,62
7361.1539999999995,62
7361.1539999999995,62
7362.277,65
7362.277,67
7363.362,69
7363.362,71
7364.938,71
7364.938,72
7366.088000000001,69
7366.088000000001,68
7367.201,72
7367.201,75
7368.214,78
7368.214,80
7369.377,82
7369.885,80
7369.885,82
7370.8949999999995,82
7370.8949999999995,80
7370.8949999999995,80
7372.2029999999995,80
7372.2029999999995,78
7372.2029999999995,81
7373.677,81
7373.677,77
7373.677,77
7374.965,77
7374.965,78
7374.965,77
7376.251,75
7376.251,75
7376.251,73
7377.5199999999995,73
7377.5199999999995,74
7377.5199999999995,74
7378.654,72
7379.0019999999995,70
7379.0019999999995,69
7379.551,69
7379.551,68
7380.563999999999,68
7380.563999999999,69
7380.563999999999,70
7381.57,71
7381.57,71
7381.57,73
7382.79,73
7382.79,73
7383.803,71
7383.803,69
7383.803,69
7385.019,69
7385.528,67
7385.64,67
7386.398,67
7386.501,67
7387.034,67
7387.133000000001,66
7387.781,66
7387.968,64
7388.499000000001,64
7388.593,62
7389.247,64
7389.348,64
7389.88,65
7389.972,67
7390.605,67
7390.749,69
7391.312,69
7391.312,67
7391.902,67
7392.46,67
7392.46,67
7393.061000000001,67
7393.061000000001,68
7393.566,68
7393.566,68
7394.146,69
7394.668000000001,68
7394.668000000001,68
7395.192,67
7395.192,69
7395.782999999999,67
7395.782999999999,68
7396.304,68
7396.304,68
7396.849999999999,68
7397.3769999999995,68
7397.3769999999995,68
7397.9039999999995,66
7397.9039999999995,66
7398.4310000000005,65
7398.4310000000005,65
7398.9580000000005,66
7399.494,67
7400.018,67
7400.1630000000005,67
7400.671,66
7401.2,66
7401.2,64
7401.2,65
7401.2,68
7402.340999999999,68
7402.340999999999,67
7402.340999999999,67
7402.340999999999,67
7403.853,69
7403.853,70
7403.853,69
7403.853,70
7404.912,68
7404.912,68
7404.912,66
7404.912,65
7406.034,65
7406.034,64
7406.541,64
7406.541,63
7406.541,65
7406.541,63
7407.743,63
7407.743,62
7407.743,62
7407.743,64
7408.862,64
7408.862,64
7408.862,62
7408.862,61
7410.103,61
7410.103,61
7410.103,59
7410.103,61
7411.353,61
7411.8589999999995,59
7411.8589999999995,60
7411.8589999999995,60
7411.8589999999995,60
7413.031,59
7413.031,60
7413.031,60
7414.037,57
7414.037,57
7414.037,57
7414.037,57
7415.2,58
7415.2,58
7416.276,58
7416.608,58
7417.212,60
7417.359,60
7417.899,60
7418.068,60
7418.068,57
7418.068,57
7419.117,57
7419.117,57
7419.117,57
7419.117,59
7420.625,59
7420.625,58
7421.17,58
7421.17,58
7421.17,56
7422.246,55
7422.246,55
7422.246,56
7423.183,57
7423.183,59
7423.183,59
7424.182,59
7424.182,59
7424.182,59
7425.182000000001,60
7425.182000000001,58
7425.182000000001,58
7425.182000000001,57
7425.182000000001,57
7426.617,56
7427.124,56
7427.124,56
7427.124,56
7428.132,56
7428.132,57
7428.132,57
7428.132,55
7429.13,54
7429.13,54
7429.13,55
7430.156,58
7430.156,57
7430.156,57
7430.156,59
7431.3640000000005,61
7431.3640000000005,60
7432.372,61
7432.372,61
7432.372,61
7432.372,63
7433.382,63
7433.382,63
7433.382,64
7434.391,63
7434.391,62
7434.391,62
7435.386,61
7435.71,60
7435.71,60
7436.34,59
7436.67,59
7436.879,59
7436.879,62
7436.879,66
7437.892,65
7437.892,64
7437.892,64
7437.892,62
7438.929,62
7438.929,60
7438.929,60
7438.929,60
7440.217,59
7440.217,59
7440.217,59
7440.217,59
7440.217,59
7441.646000000001,59
7441.646000000001,59
7441.646000000001,58
7441.646000000001,57
7441.646000000001,58
7443.142,58
7443.142,60
7443.142,61
7444.149,61
7444.149,60
7444.149,61
7444.149,61
7444.149,61
7445.467,61
7445.467,59
7445.467,60
7445.467,59
7446.607,59
7446.607,60
7446.607,60
7447.612,60
7447.612,58
7447.612,57
7448.619,57
7448.619,58
7448.619,57
7448.619,59
7449.621999999999,59
7449.621999999999,59
7449.621999999999,59
7449.621999999999,58
7450.817,58
7450.817,58
7450.817,57
7450.817,55
7452.193,56
7452.193,56
7452.193,55
7452.193,54
7453.579000000001,55
7453.579000000001,53
7453.579000000001,55
7453.579000000001,55
7454.951,54
7454.951,54
7454.951,52
7454.951,54
7456.2,54
7456.2,55
7456.2,54
7456.2,54
7457.226000000001,53
7457.226000000001,53
7457.226000000001,53
7457.226000000001,53
7457.226000000001,55
7458.679,55
7459.0560000000005,55
7459.0560000000005,54
7459.645,54
7459.645,54
7459.645,52
7460.655,52
7460.655,52
7460.655,52
7461.657999999999,51
7461.657999999999,51
7461.657999999999,53
7462.658,53
7462.658,55
7462.658,55
7462.658,55
7463.931,55
7463.931,55
7463.931,55
7463.931,53
7465.419,53
7465.419,53
7465.419,54
7465.419,55
7466.729,57
7466.729,57
7467.799,57
7468.982999999999,55
7468.982999999999,55
7469.9980000000005,55
7469.9980000000005,56
7471.004,56
7472.055,57
7472.055,57
7473.002,57
7473.002,57
7474.055,59
7475.058,59
7475.058,59
7476.03,58
7476.872,58
7476.872,58
7478.116,58
7478.116,58
7479.457,57
7479.457,56
7480.552000000001,57
7481.14,56
7482.165,56
7482.165,57
7483.582,57
7483.582,58
7484.734,58
7484.734,58
7485.756,58
7485.756,60
7486.761,60
7487.7570000000005,60
7487.7570000000005,59
7488.746,59
7488.746,57
7489.7609999999995,57
7490.820000000001,59
7490.820000000001,58
7492.17,58
7492.17,58
7493.418000000001,56
7493.418000000001,55
7494.541,55
7494.541,55
7495.933,55
7495.933,54
7496.944,56
7497.530000000001,57
7497.530000000001,59
7498.597,62
7499.6140000000005,63
7499.6140000000005,63
7500.61,64
7501.6179999999995,64
7501.6179999999995,64
7501.6179999999995,63
7502.812,63
7503.546,65
7503.546,67
7504.569,66
7505.63,66
7505.63,66
7506.57,66
7506.57,65
7507.627,64
7508.57,64
7508.57,64
7509.577,64
7510.572,64
7510.572,65
7511.57,67
7512.616999999999,67
7512.616999999999,66
7513.576,66
7513.576,64
7514.578,64
7515.568,64
7515.568,63
7516.567,61
7517.577,61
7518.568,61
7518.568,61
7519.745000000001,61
7519.745000000001,59
7520.758,59
7521.175,58
7521.950000000001,58
7522.97,57
7522.97,57
7524.134,58
7524.134,60
7525.187,63
7525.187,63
7526.567,63
7526.858,63
7527.933,62
7527.933,62
7528.889,62
7528.889,60
7529.943,61
7530.9400000000005,64
7530.9400000000005,64
7531.885,64
7532.89,65
7532.89,66
7533.88,65
7534.891,64
7534.891,63
7535.88,64
7536.938,64
7536.938,65
7537.887,64
7537.887,65
7538.934,64
7539.885,65
7540.879999999999,65
7540.879999999999,63
7541.997,63
7541.997,63
7543.221,62
7543.221,62
7544.183,60
7544.183,60
7545.38,60
7545.857,59
7546.941000000001,59
7546.941000000001,59
7547.883,59
7548.886,59
7548.886,60
7549.915999999999,62
7551.072999999999,60
7551.072999999999,60
7552.09,61
7552.09,63
7553.084,61
7554.144,61
7554.144,63
7555.091,63
7555.091,62
7556.157,62
7556.725,62
7557.797,62
7557.797,62
7558.741999999999,64
7558.741999999999,61
7559.744000000001,61
7560.79,61
7560.79,62
7561.745,65
7562.168,66
7562.168,68
7563.176,66
7563.574,68
7564.161,68
7564.161,65
7565.203,65
7565.203,65
7566.178,67
7566.178,65
7567.205999999999,67
7567.205999999999,71
7568.223,72
7568.223,74
7569.273,74
7569.273,74
7569.273,74
7570.245,75
7570.245,73
7571.401,72
7571.951,72
7571.951,74
7571.951,73
7573.027,73
7573.027,73
7574.008,76
7574.008,74
7575.0109999999995,75
7575.0109999999995,75
7575.973,73
7575.973,72
7576.959000000001,74
7576.959000000001,74
7577.964,73
7577.964,70
7579.003000000001,70
7579.003000000001,70
7579.003000000001,70
7580.122,70
7580.122,67
7581.201,67
7581.201,69
7581.201,70
7582.516,70
7582.516,69
7582.516,70
7583.59,70
7583.884,70
7584.189,67
7584.706,67
7584.706,67
7584.706,67
7585.765,66
7585.765,66
7585.765,64
7586.942,64
7586.942,65
7586.942,65
7587.95,64
7587.95,63
7587.95,63
7588.959,65
7588.959,65
7588.959,66
7589.947999999999,66
7589.947999999999,66
7589.947999999999,66
7590.985,65
7590.985,65
7590.985,65
7591.996,64
7591.996,63
7591.996,63
7592.95,63
7592.95,65
7592.95,66
7593.947,66
7593.947,66
7593.947,64
7594.963,62
7596.101,62
7597.003,61
7597.997,61
7597.997,63
7600.952,65
7600.952,65
7602.1140000000005,66
7602.1140000000005,66
7603.170999999999,66
7604.135,64
7605.15,64
7605.15,63
7606.3859999999995,61
7609.2570000000005,61
7609.717,60
7610.8,61
7610.8,61
7612.826,62
7613.742,59
7613.742,59
7615.0869999999995,58
7616.328,58
7617.342,56
7618.399,56
7618.399,57
7619.352,57
7621.516,59
7622.078,61
7623.144,61
7623.144,63
7625.218,63
7626.092,62
7626.630999999999,62
7626.630999999999,60
7629.39,60
7630.114,60
7630.114,60
7631.113,60
7633.103,59
7634.117,59
7635.256,59
7635.256,59
7636.378,59
7637.540999999999,60
7637.540999999999,60
7638.607999999999,60
7638.607999999999,58
7641.414,60
7642.473,60
7643.581,60
7643.672,61
7646.126,63
7646.126,65
7647.143,65
7647.143,63
7648.3730000000005,62
7649.442,62
7650.455,62
7650.455,60
7651.719,60
7654.118,61
7654.118,64
7655.29,64
7655.29,64
7658.652,65
7658.807000000001,64
7659.8240000000005,63
7659.8240000000005,62
7662.008,62
7663.159000000001,62
7663.159000000001,61
7664.2970000000005,61
7665.312,61
7666.331999999999,61
7667.394,61
7667.912,61
7668.934,59
7670.084,59
7670.084,60
7671.317,58
7671.827,58
7674.678,56
7675.49,56
7676.159000000001,56
7676.648,56
7678.75,56
7678.75,57
7678.75,59
7680.183999999999,59
7680.183999999999,61
7682.518,62
7683.507,62
7683.507,60
7684.597,60
7686.615,60
7687.611000000001,60
7688.6320000000005,57
7689.1410000000005,57
7690.196,59
7691.16,59
7692.211,59
7692.211,59
7694.767,59
7695.5689999999995,58
7696.536,58
7697.089,58
7697.843,56
7698.8640000000005,57
7699.89,57
7699.89,58
7700.89,59
7703.111,59
7703.111,59
7704.505,59
7704.505,59
7706.985000000001,58
7708.008000000001,58
7708.9980000000005,56
7708.9980000000005,55
7711.35,56
7711.35,54
7712.6539999999995,55
7712.6539999999995,56
7712.6539999999995,56
7716.134,56
7717.133,55
7717.133,55
7718.14,55
7719.597000000001,56
7719.597000000001,56
7720.668,56
7721.687,57
7723.812,57
7723.812,57
7724.884999999999,57
7725.829,57
7725.829,57
7728.0199999999995,57
7728.531,57
7729.554,57
7729.554,58
7732.326,56
7733.352,56
7733.352,55
7734.342,54
7735.402,53
7736.3460000000005,53
7737.262000000001,53
7737.745,53
7739.635,55
7740.648,55
7741.702,55
7741.702,55
7742.6539999999995,55
7743.647,55
7744.941,54
7744.941,54
7746.142,54
7748.494,53
7749.442,53
7750.424,53
7750.424,54
7751.678,55
7752.694,54
7753.706,53
7753.706,52
7756.312999999999,52
7756.759,51
7756.759,50
7758.238,50
7758.933,49
7760.619000000001,51
7761.148,51
7762.162,51
7762.162,51
7764.1669999999995,53
7765.166,54
7766.339999999999,54
7767.361,51
7768.356,52
7769.3589999999995,52
7769.3589999999995,50
7770.358,50
7773.118,49
7773.118,49
7774.117,49
7775.164,50
7775.673000000001,51
7777.035,51
7777.822999999999,51
7777.822999999999,51
7778.9710000000005,50
7781.189,51
7782.226,52
7782.226,52
7783.705,52
7784.795,52
7785.807,51
7785.807,51
7786.999,51
7788.561,51
7789.5830000000005,51
7790.715999999999,52
7790.715999999999,50
7791.736,52
7792.786,50
7793.776,50
7794.7300000000005,49
7794.7300000000005,49
7797.046,49
7797.9890000000005,53
7797.9890000000005,56
7798.991,57
7801.406,57
7801.969,58
7802.983,58
7803.982,55
7803.982,55
7806.021000000001,54
7806.575,53
7806.575,53
7807.588,53
7809.597,53
7809.597,56
7811.012,55
7811.531999999999,55
7813.552,54
7813.552,54
7814.557,54
7815.546,52
7817.504,52
7818.009,52
7818.571999999999,50
7818.982,51
7819.4619999999995,51
7822.062,53
7822.062,55
7823.0740000000005,55
7823.0740000000005,55
7826.2660000000005,54
7827.129,54
7827.129,52
7828.08,52
7830.308999999999,52
7831.075,52
7831.075,50
7832.484,49
7833.738,49
7834.889,51
7834.889,51
7835.903,50
7837.005,50
7839.012000000001,50
7839.315,50
7840.339,52
7840.339,52
7842.647,53
7843.219999999999,53
7843.219999999999,53
7844.502,55
7846.759,55
7846.759,55
7847.757,55
7848.696,54
7849.771,55
7850.799999999999,55
7851.786,55
7851.786,54
7853.2919999999995,53
7855.089000000001,53
7855.089000000001,53
7856.107,53
7856.9259999999995,54
7859.208,55
7859.208,55
7860.227,56
7861.222,58
7863.018,56
7863.018,56
7864.325,56
7864.325,56
7865.656000000001,53
7866.7119999999995,53
7866.7119999999995,55
7868.017,55
7869.28,55
7870.939,54
7872.015,54
7872.015,54
7872.955,54
7874.955,53
7875.96,52
7876.737,52
7877.121,51
7879.454,51
7879.986,51
7881.049,54
7881.049,55
7881.997,55
7883.112999999999,55
7884.124,54
7885.319,54
7885.829000000001,54
7887.178,52
7887.178,52
7888.633,53
7888.633,52
7891.447999999999,51
7892.464999999999,53
7892.464999999999,53
7893.464,55
7895.191,54
7896.212,54
7896.212,51
7897.469,51
7897.469,52
7899.789,51
7899.789,52
7901.112,54
7901.621999999999,54
7903.818,56
7903.818,55
7905.01,55
7905.01,54
7908.32,54
7908.32,54
7909.3460000000005,52
7909.3460000000005,52
7912.271,52
7912.271,51
7913.196,50
7913.196,50
7914.183999999999,49
7915.334,51
7916.709,51
7917.728999999999,51
7917.728999999999,50
7919.794,50
7920.731,50
7920.731,50
7921.721,52
7924.735,52
7924.735,51
7925.734,50
7925.734,50
7928.78,51
7928.78,51
7929.805,50
7929.805,50
7930.803,50
7931.968000000001,50
7933.259,50
7934.271,49
7934.271,49
7936.7119999999995,47
7936.7119999999995,49
7937.735,48
7937.735,49
7940.925,52
7941.736,52
7941.736,52
7942.7339999999995,52
7942.7339999999995,52
7944.799,52
7945.737,51
7945.737,53
7946.734,53
7948.736,51
7949.741,51
7950.748,51
7950.748,52
7952.766,51
7953.735,51
7953.735,50
7954.734,49
7957.463,49
7957.463,50
7958.488,51
7958.488,53
7959.486,53
7961.134,54
7961.914,54
7962.938,54
7962.938,53
7965.003000000001,52
7965.938999999999,52
7966.932,51
7966.932,51
7969.386,51
7969.386,53
7970.402,55
7970.402,53
7973.396,52
7973.396,52
7974.427000000001,52
7974.427000000001,52
7975.413,52
7978.428,49
7978.428,50
7979.415,51
7979.415,53
7982.04,55
7982.04,55
7983.088000000001,58
7984.177,58
7985.709,55
7985.709,56
7987.052000000001,56
7987.56,55
7989.246999999999,55
7990.263,55
7990.263,55
7991.258,56
7991.258,57
7994.021,57
7994.021,55
7995.054,55
7995.054,54
7998.3820000000005,54
7999.412,54
8000.415,54
8000.415,56
8001.816,57
8002.8009999999995,57
8003.369,57
8003.369,59
8003.933,59
8006.719,58
8006.719,57
8007.733,58
8007.733,56
8010.365999999999,56
8010.878,56
8010.878,56
8011.892,57
8014.893000000001,56
8014.893000000001,57
8015.902999999999,57
8017.213,57
8018.62,58
8018.62,58
8019.643999999999,58
8019.643999999999,58
8020.643,58
8022.410000000001,57
8023.490000000001,57
8023.490000000001,57
8024.689,57
8026.83,57
8027.856999999999,57
8027.856999999999,57
8028.848999999999,57
8031.019,56
8031.019,55
8032.033,54
8033.073999999999,54
8034.0869999999995,53
8035.216,53
8035.216,53
8036.300000000001,53
8036.300000000001,55
8039.189,55
8040.271000000001,58
8040.271000000001,58
8040.271000000001,58
8043.429,58
8043.429,57
8044.464,57
8044.464,57
8047.561999999999,56
8047.561999999999,59
8048.590000000001,59
8049.59,59
8051.2519999999995,59
8051.2519999999995,58
8051.2519999999995,58
8052.524,58
8053.092,58
8055.4439999999995,57
8056.765,57
8057.285,57
8057.285,57
8059.641,59
8059.641,58
8060.656,58
8060.656,55
8063.805,56
8064.655,54
8064.655,56
8065.656000000001,54
8067.660999999999,54
8067.660999999999,54
8067.660999999999,53
8068.892999999999,55
8068.892999999999,55
8071.415,55
8072.407,54
8073.403000000001,52
8073.403000000001,54
8075.9220000000005,52
8075.9220000000005,50
8076.947999999999,52
8076.947999999999,50
8080.078,51
8080.828,55
8080.828,57
8081.825,57
8081.825,57
8083.819,56
8084.8150000000005,56
8084.8150000000005,56
8085.813999999999,54
8087.823,53
8088.8150000000005,53
8089.815,53
8089.815,53
8091.825,55
8092.828,55
8093.815,55
8093.815,54
8095.8240000000005,54
8096.815,52
8097.8150000000005,54
8097.8150000000005,53
8098.8150000000005,53
8099.823,54
8100.976,54
8101.495999999999,54
8101.495999999999,56
8105.014000000001,57
8105.014000000001,57
8106.012,55
8106.012,55
8108.808,54
8108.808,54
8109.902,53
8109.902,53
8112.911999999999,55
8112.911999999999,55
8113.897,55
8113.897,56
8114.891,56
8116.832,55
8116.832,55
8117.972,55
8118.484,55
8120.504999999999,58
8121.555,58
8122.556,58
8122.556,58
8125.501,57
8125.501,57
8126.5560000000005,56
8126.5560000000005,57
8129.419000000001,57
8129.419000000001,57
8130.199,55
8130.199,55
8131.221999999999,54
8133.227,54
8133.227,54
8134.225,53
8134.741,52
8136.805,52
8137.753,52
8137.753,53
8138.753,55
8141.764,55
8141.764,55
8142.766,54
8142.766,54
8145.810000000001,54
8145.810000000001,54
8146.767000000001,52
8146.767000000001,52
8147.764,52
8149.762000000001,50
8150.755999999999,49
8150.755999999999,51
8151.752,53
8153.798,53
8153.798,53
8154.821,51
8154.821,51
8157.632,51
8158.702,52
8158.702,52
8158.702,53
8159.701,55
8161.828999999999,56
8162.848,56
8162.848,58
8163.848,58
8165.861,57
8166.888,58
8166.888,55
8167.889999999999,56
8169.933,55
8169.933,54
8170.9259999999995,53
8170.9259999999995,53
8174.386,52
8174.386,53
8175.478999999999,55
8175.478999999999,55
8176.418,54
8178.411000000001,54
8178.411000000001,54
8179.437,54
8180.4439999999995,55
8181.82,54
8183.026999999999,53
8184.243,53
8184.763,54
8185.847000000001,55
8186.897,56
8187.412,57
8187.412,56
8190.763000000001,58
8191.592999999999,55
8191.592999999999,54
8192.596,54
8192.596,53
8194.613000000001,52
8195.593,53
8195.593,53
8195.593,55
8198.513,57
8199.842999999999,57
8199.842999999999,58
8200.932999999999,58
8202.591999999999,58
8203.159,58
8203.159,57
8204.242,57
8206.615,57
8207.691,56
8207.691,57
8208.634999999998,58
8208.634999999998,59
8210.834,58
8211.644,58
8212.628,58
8213.810000000001,57
8215.214,56
8215.214,56
8216.523000000001,55
8217.625,55
8218.639,55
8219.642,57
8219.642,59
8220.794,59
8222.547999999999,58
8223.567,58
8223.567,58
8224.641,56
8224.641,56
8227.677,56
8227.677,56
8227.677,56
8229.165,56
8231.3,56
8232.315,57
8233.314999999999,55
8234.313,55
8235.329,54
8236.321,54
8236.321,54
8237.316,52
8238.314,52
8239.322,53
8240.313,54
8241.313999999998,55
8241.313999999998,56
8243.326,56
8244.315,57
8245.313,57
8245.313,55
8247.321,54
8248.312,54
8249.314999999999,54
8249.314999999999,53
8251.365,52
8252.376999999999,52
8252.376999999999,51
8252.376999999999,51
8253.503999999999,51
8255.653,51
8256.658,51
8256.658,51
8257.703,52
8260.205,52
8261.255000000001,54
8261.255000000001,56
8262.222,56
8264.307999999999,56
8264.307999999999,56
8265.319,57
8265.319,57
8268.318000000001,55
8268.318000000001,55
8269.318,55
8269.318,54
8269.318,53
8272.318000000001,53
8273.319000000001,53
8273.319000000001,53
8274.329,51
8276.331,53
8277.33,51
8278.321,54
8278.321,55
8280.327,58
8281.33,59
8282.32,60
8282.32,58
8284.398,57
8284.908,57
8285.928,56
8285.928,56
8286.919,56
8288.921999999999,57
8288.921999999999,57
8289.923,57
8289.923,56
8292.941,56
8293.969000000001,54
8293.969000000001,54
8293.969000000001,53
8297.012999999999,53
8297.012999999999,53
8297.962,56
8297.962,57
8299.030999999999,55
8301.723,57
8301.723,58
8302.735,58
8302.735,56
8305.504,56
8305.504,56
8306.516,55
8306.516,56
8309.518,56
8309.518,56
8310.514,55
8310.514,55
8313.514,58
8313.514,58
8313.514,56
8314.517,56
8315.516000000001,55
8317.514,53
8318.514000000001,53
8318.514000000001,57
8318.514000000001,59
8321.716,59
8322.275,61
8322.275,62
8322.275,62
8325.348,62
8326.209,60
8326.765,60
8326.765,61
8329.704,61
8330.661,62
8330.661,63
8331.657,63
8332.658,62
8333.923999999999,62
8334.527,60
8335.132,60
8335.666,60
8338.278,61
8338.278,63
8338.278,63
8339.738000000001,63
8342.297999999999,63
8342.297999999999,63
8342.297999999999,63
8343.702000000001,63
8346.257,62
8346.257,60
8347.279999999999,60
8347.279999999999,60
8348.268,60
8349.765,58
8350.78,59
8350.78,59
8351.775,59
8353.78,58
8354.795,58
8354.795,58
8354.795,57
8357.778,56
8358.777999999998,56
8358.777999999998,55
8359.778,55
8361.779,57
8362.779,57
8363.776,55
8363.776,55
8363.776,55
8366.776,54
8366.776,54
8367.778,54
8367.778,54
8370.776,54
8370.776,54
8371.779,56
8371.779,56
8374.776,55
8375.779,54
8375.779,54
8376.778,54
8376.778,52
8378.777,53
8379.823999999999,54
8379.823999999999,55
8380.784,57
8382.778999999999,59
8383.779,59
8383.779,59
8384.777,59
8386.35,58
8386.35,58
8387.82,60
8387.82,58
8390.841999999999,60
8391.839,57
8391.839,57
8392.838,57
8392.838,58
8395.84,58
8395.84,58
8396.839,58
8396.839,58
8399.84,57
8399.84,57
8401.028999999999,58
8402.037999999999,59
8403.552,59
8403.552,59
8405.276,59
8405.276,61
8406.91,59
8407.927000000001,58
8407.927000000001,58
8409.116,58
8409.116,58
8412.127,57
8412.127,57
8413.128999999999,57
8414.134,57
8416.131,58
8416.131,57
8417.128999999999,57
8417.128999999999,58
8419.59,58
8420.689,58
8420.689,58
8420.689,57
8424.108,57
8424.108,57
8424.108,59
8425.121000000001,59
8425.121000000001,59
8428.35,59
8428.35,60
8429.357,58
8429.413999999999,58
8431.567,57
8431.567,56
8433.061,56
8433.061,56
8435.418,57
8436.479000000001,57
8437.575,57
8437.575,57
8439.730000000001,56
8439.730000000001,56
8441.243,56
8441.243,54
8441.243,54
8444.594000000001,53
8444.594000000001,53
8445.604,53
8445.664,53
8447.844,55
8448.850999999999,55
8448.850999999999,55
8448.850999999999,56
8452.747000000001,54
8452.747000000001,54
8453.749,53
8454.751999999999,53
8455.788,52
8456.757,53
8457.314999999999,53
8458.33,56
8458.33,57
8460.611,57
8461.627,58
8462.628999999999,58
8463.139,58
8465.157,58
8465.157,57
8466.151,56
8466.151,56
8469.166,56
8469.166,56
8470.15,57
8470.15,59
8470.15,59
8473.152,58
8474.154,58
8474.154,56
8475.15,56
8477.151,54
8477.151,54
8478.154,56
8478.154,56
8481.162,57
8482.152,57
8482.152,59
8483.151,59
8485.211,58
8486.154,58
8486.154,58
8486.154,56
8486.154,55
8489.713,55
8489.713,53
8490.713,53
8490.713,53
8493.705,54
8493.705,53
8493.705,55
8494.704,54
8497.291000000001,54
8497.291000000001,54
8498.34,55
8498.34,56
8501.557,56
8502.565,56
8502.565,56
8503.555,56
8503.555,55
8505.565,55
8506.563999999998,55
8506.563999999998,55
8507.568,55
8510.167,54
8510.167,54
8511.194,54
8511.194,54
8513.291000000001,53
8513.291000000001,53
8514.673,53
8514.673,53
8517.784000000001,55
8517.784000000001,55
8518.791000000001,54
8518.791000000001,54
8519.784,54
8521.658000000001,56
8522.717,55
8524.101,55
8524.611,55
8526.628,55
8526.628,54
8527.625,55
8527.625,55
8530.293,54
8531.297999999999,54
8531.297999999999,52
8532.241,52
8532.241,50
8534.824999999999,52
8535.886,50
8535.886,50
8535.886,49
8538.923999999999,51
8538.923999999999,53
8539.977,54
8539.977,54
8542.652,54
8543.657,56
8543.657,54
8544.650000000001,53
8546.542000000001,53
8547.050000000001,53
8547.050000000001,53
8547.050000000001,51
8548.466,53
8551.199999999999,54
8551.199999999999,53
8551.199999999999,52
8551.199999999999,52
8555.002999999999,52
8555.002999999999,50
8555.002999999999,50
8555.002999999999,49
8559.0,52
8559.0,51
8559.0,53
8560.008,58
8563.007000000001,59
8563.007000000001,61
8564.012999999999,59
8564.012999999999,59
8564.012999999999,58
8567.268,58
8567.268,56
8568.265,60
8568.265,61
8571.265000000001,64
8571.265000000001,66
8571.265000000001,67
8572.265,67
8575.262999999999,67
8575.262999999999,66
8575.262999999999,66
8576.264,66
8579.264000000001,64
8579.264000000001,64
8579.264000000001,65
8580.265000000001,65
8580.265000000001,65
8583.48,67
8583.48,67
8584.491,67
8584.491,67
8587.967,66
8587.967,66
8587.967,64
8587.967,64
8592.003999999999,62
8592.003999999999,62
8593.029,61
8593.029,61
8594.026,59
8596.207,61
8597.03,62
8597.03,63
8598.027,64
8600.027,64
8600.027,64
8601.213,64
8601.213,64
8604.444000000001,64
8604.954,61
8605.525,62
8605.525,61
8608.53,63
8609.261,61
8609.261,62
8610.257000000001,60
8610.257000000001,60
8612.405,59
8613.001,59
8613.001,58
8614.195,57
8616.638,57
8616.638,57
8617.803,58
8618.316,59
8620.322,61
8620.322,61
8621.396,60
8621.396,62
8624.594000000001,60
8625.409,60
8625.409,60
8626.346,58
8626.346,58
8629.352,57
8629.352,59
8630.349,59
8630.349,59
8632.35,61
8633.348,59
8634.344000000001,59
8635.632,58
8636.943000000001,58
8636.943000000001,57
8637.997000000001,58
8637.997000000001,60
8641.045,59
8641.045,59
8641.992,59
8641.992,59
8643.027999999998,59
8645.042,58
8645.042,58
8646.034,56
8646.034,56
8648.999,55
8649.991,56
8651.12,53
8651.12,53
8653.245,55
8653.245,55
8654.258,55
8654.258,54
8657.299,54
8657.299,54
8658.265,54
8658.265,53
8658.265,53
8661.301,56
8661.301,56
8662.262,56
8662.262,56
8665.262999999999,55
8666.258,55
8666.258,55
8667.26,54
8669.259,54
8670.257,52
8670.257,52
8670.257,52
8671.255000000001,50
8673.255,51
8674.255000000001,50
8674.255000000001,51
8674.255000000001,51
8677.256,54
8678.256,54
8678.256,54
8678.256,54
8681.665,54
8681.665,52
8683.037,52
8683.037,52
8685.627999999999,51
8686.552000000001,51
8686.552000000001,51
8686.552000000001,53
8686.552000000001,51
8690.586,51
8691.556999999999,52
8691.556999999999,51
8691.556999999999,52
8694.618999999999,51
8694.618999999999,49
8695.558,50
8695.558,49
8698.472,51
8699.486,54
8699.486,53
8700.525000000001,56
8702.206,57
8703.233,59
8703.233,59
8704.228000000001,59
8704.228000000001,59
8706.718,61
8706.718,62
8707.746000000001,62
8707.746000000001,62
8710.946,62
8711.767,64
8711.767,64
8712.791,64
8715.255000000001,63
8716.084,63
8716.595,63
8717.659,63
8718.610999999999,62
8718.610999999999,64
8719.607,63
8719.607,66
8720.625,65
8722.853000000001,65
8723.617,64
8723.617,64
8724.616,63
8727.608,64
8728.611,63
8728.611,64
8729.624,62
8730.625,62
8731.626,62
8732.628999999999,61
8733.627,60
8734.641,60
8735.625,59
8736.627,57
8736.627,57
8737.624,59
8739.251,59
8740.263,61
8740.263,62
8740.263,64
8743.323,66
8743.323,64
8745.153,64
8745.153,64
8747.214,65
8748.169,64
8748.169,64
8749.168,65
8750.292,65
8751.318,65
8752.314,63
8752.314,63
8753.316,62
8755.855,61
8755.855,61
8755.855,60
8756.868,61
8758.903,61
8760.115000000002,61
8760.628,63
8760.628,63
8763.673,65
8763.673,63
8764.635999999999,62
8764.635999999999,62
8764.635999999999,61
8767.509,60
8768.582999999999,60
8768.582999999999,59
8769.541000000001,59
8772.533,59
8772.533,59
8772.533,59
8773.581999999999,58
8776.541,58
8776.541,58
8777.54,58
8777.54,57
8780.549,57
8780.549,57
8781.565,57
8782.527,57
8782.527,57
8784.078,57
8785.237000000001,55
8785.748,55
8786.182,54
8788.114,54
8789.129,52
8790.127,53
8790.127,53
8793.13,53
8793.13,53
8794.127,53
8794.127,53
8796.195000000002,52
8797.129,51
8798.126999999999,52
8798.126999999999,52
8799.137,52
8800.573,52
8801.586000000001,53
8801.586000000001,53
8802.583999999999,55
8805.278,55
8805.782000000001,54
8806.817000000001,54
8806.817000000001,52
8809.020999999999,52
8809.821,52
8809.821,52
8810.816,52
8810.816,51
8813.016,51
8813.807,51
8813.807,53
8814.805,52
8817.304999999998,54
8818.321,52
8818.321,52
8819.32,52
8821.319000000001,52
8822.319,53
8822.319,53
8823.318000000001,54
8825.38,53
8825.38,53
8826.321,52
8826.321,52
8826.321,50
8829.361,50
8829.361,50
8830.325,49
8830.325,50
8833.41,50
8833.926,49
8833.926,49
8834.945,50
8837.72,51
8838.228000000001,54
8838.741,55
8838.741,54
8841.03,54
8842.043,56
8842.043,55
8842.043,53
8843.038999999999,53
8845.702,52
8845.702,51
8845.702,53
8846.7,53
8849.769,51
8849.769,52
8850.777,52
8850.777,52
8853.821999999998,51
8853.821999999998,50
8854.787999999999,49
8854.787999999999,49
8857.821,49
8857.821,48
8857.821,50
8858.788,47
8858.788,50
8862.669,50
8862.669,50
8863.695,51
8863.695,49
8866.699,49
8867.699999999999,50
8867.699999999999,49
8868.775,50
8869.802,50
8870.792,48
8871.788999999999,48
8871.788999999999,50
8871.788999999999,48
8874.442000000001,49
8875.237000000001,47
8875.237000000001,47
8876.26,48
8878.839,50
8879.868999999999,50
8879.868999999999,52
8880.871000000001,52
8882.868,52
8882.868,52
8884.226999999999,51
8884.226999999999,51
8886.144,53
8887.162,53
8887.162,54
8888.261,52
8888.777,52
8891.029,52
8891.839,52
8891.839,52
8892.793,52
8894.994,51
8895.854,51
8895.854,51
8896.792,51
8898.638,54
8900.147,54
8901.257,54
8901.257,55
8903.264,55
8903.83,55
8903.83,53
8903.83,53
8903.83,55
8907.329000000002,55
8908.115,55
8909.125,54
8909.125,54
8911.336000000001,54
8912.159000000001,53
8912.159000000001,53
8913.118,52
8916.128,51
8917.154999999999,51
8917.154999999999,53
8918.183,55
8919.404999999999,55
8920.432999999999,55
8920.432999999999,58
8921.443,56
8921.443,57
8924.039999999999,56
8924.039999999999,56
8925.074999999999,56
8925.074999999999,56
8928.158,57
8928.158,57
8929.196,58
8929.196,58
8932.183,58
8933.186,58
8934.184,57
8934.184,56
8935.181,56
8936.180999999999,56
8936.180999999999,57
8937.181,59
8937.181,59
8940.277999999998,61
8941.309000000001,59
8942.304999999998,60
8942.304999999998,60
8944.063,60
8944.063,60
8945.42,58
8945.42,57
8947.749,57
8948.740000000002,59
8949.742,59
8949.742,58
8950.739,58
8951.737,58
8953.182999999999,56
8953.182999999999,54
8954.429,53
8956.664,53
8956.664,53
8957.734999999999,57
8957.734999999999,57
8960.822,59
8961.255,59
8962.268,58
8962.268,58
8964.6,56
8965.228,55
8966.425,56
8966.425,54
8967.520999999999,55
8968.197999999999,56
8969.29,57
8969.29,55
8970.286,55
8973.23,54
8973.23,54
8974.265000000001,53
8974.265000000001,52
8977.24,52
8977.24,52
8978.23,53
8978.23,56
8981.285,57
8982.24,57
8982.24,58
8983.571,56
8983.571,58
8984.587,55
8985.597,55
8985.597,56
8986.585,55
8989.62,56
8989.62,57
8990.561,58
8990.561,57
8993.59,58
8993.59,58
8994.641,56
8994.641,54
8997.14,54
8998.217999999999,53
8998.217999999999,55
8999.608,57
9000.122,57
9001.245,59
9002.258,59
9002.258,59
9003.261999999999,60
9005.262,60
9006.355,58
9006.355,57
9007.451,57
9010.033,56
9010.033,57
9011.051,58
9011.051,59
9012.048999999999,58
9014.091,58
9014.091,58
9015.121000000001,56
9016.117,55
9017.801000000001,56
9017.801000000001,55
9018.814,56
9019.873,59
9022.054,59
9022.82,59
9022.82,58
9023.814,58
9025.423999999999,56
9026.451,56
9026.451,55
9027.445,56
9027.445,56
9030.454000000002,56
9030.454000000002,57
9031.492999999999,57
9032.449,56
9034.233,55
9035.226,55
9035.226,54
9036.24,53
9038.946,53
9038.946,53
9039.944,56
9039.944,56
9042.947,57
9042.947,59
9043.945000000002,59
9043.945000000002,58
9044.943,58
9046.946,55
9046.946,56
9047.954000000002,55
9047.954000000002,56
9050.856,57
9050.856,57
9051.869999999999,57
9051.869999999999,57
9054.998,56
9055.872000000001,56
9055.872000000001,58
9056.871,57
9059.234,57
9059.234,58
9060.259,59
9060.259,61
9061.256,63
9063.149,63
9063.149,63
9064.238,62
9064.238,63
9066.412,62
9067.848,61
9067.848,61
9069.056,60
9070.672,59
9070.672,59
9072.053,59
9072.053,59
9073.07,59
9075.318,59
9076.071,58
9076.071,58
9077.128,57
9079.444000000001,57
9079.444000000001,58
9080.479000000001,59
9080.479000000001,59
9082.839999999998,59
9083.847,61
9084.889000000001,61
9084.889000000001,59
9087.009,58
9088.034,58
9088.034,57
9089.033000000001,57
9089.033000000001,59
9092.036,59
9092.036,59
9093.044000000002,59
9093.044000000002,59
9096.057999999999,59
9096.057999999999,60
9097.035,62
9097.035,62
9100.039999999999,62
9101.036,64
9102.044,64
9102.044,61
9104.046,61
9104.046,63
9104.046,63
9105.398,63
9106.053,62
9108.224999999999,62
9109.085000000001,62
9109.085000000001,61
9109.085000000001,60
9112.535,60
9112.535,59
9113.534,59
9113.534,59
9115.528,59
9117.963,59
9117.963,60
9117.963,60
9120.338,60
9120.338,60
9121.717999999999,60
9122.231,60
9123.249,59
9124.3,59
9125.247,59
9126.249,59
9126.249,59
9128.303,59
9129.246000000001,62
9130.249,62
9130.249,62
9133.243999999999,61
9134.287,63
9134.287,62
9135.304,63
9136.810000000001,63
9136.810000000001,63
9136.810000000001,62
9138.162,62
9138.681999999999,62
9140.957,62
9141.695,62
9141.695,62
9142.694000000001,61
9144.919,61
9145.696,61
9145.696,62
9146.694,61
9148.697,59
9149.696,60
9149.696,59
9150.966,60
9150.966,60
9153.053,58
9153.985,57
9153.985,58
9154.991,59
9157.533000000001,61
9157.533000000001,61
9158.568000000001,60
9158.568000000001,60
9161.447,59
9161.447,58
9161.447,58
9162.945,60
9165.324999999999,60
9166.565999999999,59
9166.565999999999,59
9167.579,59
9167.579,59
9169.681,59
9169.681,58
9169.681,58
9171.135,58
9173.415,56
9174.431,56
9174.431,56
9174.431,56
9177.68,56
9178.437,57
9178.437,59
9179.605,59
9181.934,60
9181.934,60
9183.405999999999,59
9184.43,58
9185.429,57
9185.936,56
9185.936,56
9186.961,56
9186.961,57
9190.487,59
9190.487,59
9191.485999999999,58
9191.485999999999,58
9193.744999999999,56
9194.483,56
9195.48,55
9195.48,55
9198.498000000001,55
9198.498000000001,54
9199.487,58
9200.483999999999,61
9200.483999999999,62
9202.488000000001,63
9202.488000000001,62
9203.502,60
9203.502,60
9206.692000000001,60
9206.692000000001,59
9207.729000000001,58
9207.729000000001,58
9209.966,59
9211.308,59
9211.308,59
9212.32,58
9214.728,55
9215.675,55
9216.668,55
9216.668,56
9217.665,56
9218.724,57
9218.724,58
9219.673,59
9219.673,59
9222.925,59
9223.677,59
9223.677,58
9224.674,58
9226.882,56
9226.882,57
9227.725,56
9227.725,56
9228.709,56
9231.182,57
9232.211,57
9233.207999999999,57
9233.207999999999,55
9235.206,55
9235.206,54
9236.205,54
9236.373,54
9239.012999999999,55
9239.012999999999,56
9240.093,56
9240.093,57
9242.933,57
9243.946,57
9243.946,55
9243.946,55
9245.016,54
9247.117,54
9248.201,52
9249.369,52
9250.389000000001,51
9251.523000000001,51
9251.523000000001,51
9251.523000000001,53
9252.984,53
9255.528999999999,52
9256.1,52
9256.1,54
9257.187,54
9260.049,56
9260.049,57
9261.067000000001,60
9261.631,61
9261.631,61
9264.019,61
9264.019,63
9265.053,62
9266.047,62
9267.73,62
9267.73,64
9268.768,64
9269.768,65
9272.054,68
9272.574999999999,68
9273.757,67
9274.27,67
9275.528,67
9276.587,67
9276.587,70
9277.601,70
9277.601,71
9279.914,72
9280.689,69
9280.689,71
9281.706,72
9284.109,69
9284.109,69
9285.136,69
9286.139000000001,67
9288.576000000001,69
9289.163999999999,67
9289.163999999999,66
9290.191,66
9290.191,64
9292.550000000001,64
9293.382,63
9293.382,63
9294.380000000001,63
9296.587000000001,63
9296.587000000001,65
9297.655,66
9298.601,66
9300.601,66
9301.618,66
9301.618,66
9301.618,64
9304.836,64
9305.688,64
9305.688,63
9306.688,61
9306.688,63
9309.054,63
9309.054,63
9310.136,63
9310.136,62
9312.947,62
9312.947,61
9314.034,60
9314.034,60
9316.571,59
9317.569000000001,59
9317.569000000001,63
9318.567,63
9320.649,63
9320.649,64
9321.94,66
9321.94,64
9321.94,62
9325.362000000001,60
9325.362000000001,60
9326.412,61
9326.412,61
9329.544,61
9329.544,61
9330.583,61
9330.583,62
9333.571,60
9333.571,60
9334.707999999999,57
9335.722,57
9337.348,59
9337.348,59
9338.366,59
9338.366,63
9339.417,63
9341.609,63
9342.371,63
9342.371,62
9343.367,62
9345.612,60
9346.373,60
9346.373,59
9347.367,59
9349.371,59
9350.368,59
9351.536,61
9352.636,60
9352.636,58
9354.008,58
9355.214,56
9355.214,57
9356.776,57
9358.214,59
9359.061,59
9359.061,59
9360.071,61
9362.092999999999,60
9362.092999999999,58
9363.606000000002,58
9363.606000000002,57
9366.005,60
9367.689,60
9367.689,57
9368.206,59
9368.206,59
9370.342,59
9370.342,58
9371.262,60
9371.441,60
9374.57,60
9375.238,60
9375.238,59
9376.25,57
9378.704000000002,61
9378.704000000002,63
9379.705,63
9379.705,64
9381.962,62
9383.708,62
9384.752,64
9384.752,61
9385.754,61
9385.754,61
9386.977,61
9386.977,63
9388.473,63
9390.764000000001,62
9390.764000000001,60
9391.836,59
9391.836,58
9395.234999999999,57
9395.234999999999,57
9396.252,57
9396.766,57
9398.825,59
9399.844,59
9400.988,62
9401.532,62
9401.935,61
9402.951,60
9402.951,60
9403.954,59
9403.954,59
9407.426,59
9407.426,59
9408.44,61
9408.44,59
9411.442,60
9411.442,58
9412.444000000001,56
9412.444000000001,57
9415.319,57
9416.347,57
9417.338000000002,57
9418.391,57
9418.651,59
9419.135,58
9419.756,58
9419.756,60
9420.9,61
9423.662,60
9424.213,60
9425.277,59
9425.277,59
9427.714999999998,59
9428.298,59
9428.823,60
9428.823,62
9429.833999999999,62
9432.091,60
9433.111,60
9434.108,60
9434.108,57
9435.110999999999,59
9436.108,59
9436.108,61
9437.155999999999,59
9439.936,59
9440.689,60
9440.689,60
9440.689,60
9443.443000000001,60
9444.549,59
9445.062,59
9445.062,59
9446.203000000001,61
9448.286,59
9449.323,60
9450.604,58
9451.525,58
9452.055,56
9452.055,56
9453.149,56
9453.695,56
9456.512999999999,57
9456.512999999999,57
9457.511999999999,59
9457.511999999999,58
9459.768,59
9460.516,58
9461.615,58
9461.615,60
